time,ppg_signal,subject_id
0.0,-0.015861233412454222,15
0.010001666944490749,0.11515196408083003,15
0.020003333888981498,0.20230443524312128,15
0.030005000833472247,0.32858422895646017,15
0.040006667777962995,0.42331637660324756,15
0.050008334722453744,0.5126734311890115,15
0.06001000166694449,0.6142074942343025,15
0.07001166861143523,0.6685680261855125,15
0.08001333555592599,0.7115128809873001,15
0.09001500250041675,0.7553460465375621,15
0.10001666944490749,0.7846432303609787,15
0.11001833638939823,0.7804051708907184,15
0.12002000333388899,0.7720568789116559,15
0.13002167027837974,0.7340171338126642,15
0.14002333722287047,0.717136828473251,15
0.15002500416736123,0.6639936180508937,15
0.16002667111185198,0.598709390271339,15
0.17002833805634274,0.5458646062646743,15
0.1800300050008335,0.4936891159719505,15
0.19003167194532422,0.4217971962949505,15
0.20003333888981498,0.3411375436729432,15
0.21003500583430573,0.2876984215174976,15
0.22003667277879646,0.25338916747266954,15
0.23003833972328722,0.18024194509940672,15
0.24004000666777797,0.1458026019952434,15
0.2500416736122687,0.10488188641776755,15
0.2600433405567595,0.057610266531625945,15
0.2700450075012502,0.04805398151240326,15
0.28004667444574094,0.02935967831502749,15
0.2900483413902317,0.018090211906871025,15
0.30005000833472245,-0.014330405986961958,15
0.31005167527921323,-0.006731896010478397,15
0.32005334222370396,-0.011133736837276378,15
0.3300550091681947,-0.0027955211870582873,15
0.3400566761126855,0.004545199907609346,15
0.3500583430571762,0.0008324932164700634,15
0.360060010001667,-0.011654466054355791,15
0.3700616769461577,-0.02879882075459814,15
0.38006334389064844,-0.0396222857757165,15
0.3900650108351392,-0.06518755703228586,15
0.40006667777962995,-0.1049824687995532,15
0.4100683447241207,-0.14885294980180444,15
0.42007001166861146,-0.19087955779545487,15
0.4300716786131022,-0.24785415634426383,15
0.4400733455575929,-0.2983290108852029,15
0.4500750125020837,-0.3664979831476576,15
0.46007667944657443,-0.4229851350782429,15
0.4700783463910652,-0.4989405562955209,15
0.48008001333555594,-0.5579498762248287,15
0.49008168028004667,-0.6226245304718577,15
0.5000833472245374,-0.6664383751688612,15
0.5100850141690282,-0.7251247175866782,15
0.520086681113519,-0.7431889621600063,15
0.5300883480580096,-0.7794820762069519,15
0.5400900150025004,-0.7931575854965348,15
0.5500916819469912,-0.7857967523720475,15
0.5600933488914819,-0.750609089225888,15
0.5700950158359727,-0.7051215410612295,15
0.5800966827804634,-0.6625527668961109,15
0.5900983497249542,-0.6228484736524192,15
0.6001000166694449,-0.5173946907567686,15
0.6101016836139357,-0.4361309638814701,15
0.6201033505584265,-0.3215335526481949,15
0.6301050175029171,-0.2300222887277544,15
0.6401066844474079,-0.10475535185825982,15
0.6501083513918987,0.00781538144312502,15
0.6601100183363894,0.11892778364268244,15
0.6701116852808802,0.24152161776688075,15
0.680113352225371,0.3458805141092422,15
0.6901150191698616,0.4363931932883267,15
0.7001166861143524,0.529761156777911,15
0.7101183530588432,0.6188796439727975,15
0.720120020003334,0.6816923261580243,15
0.7301216869478246,0.7298066807707305,15
0.7401233538923154,0.7415283906801158,15
0.7501250208368062,0.774462683410206,15
0.7601266877812969,0.8019842714683805,15
0.7701283547257877,0.7536532235907787,15
0.7801300216702785,0.7272955892205691,15
0.7901316886147691,0.7103943082928361,15
0.8001333555592599,0.6384329160237977,15
0.8101350225037507,0.6129443784018973,15
0.8201366894482414,0.5438281395723874,15
0.8301383563927321,0.4742974056814174,15
0.8401400233372229,0.4161304388417068,15
0.8501416902817136,0.3476528317619949,15
0.8601433572262044,0.28315896369540144,15
0.8701450241706952,0.2337655584781347,15
0.8801466911151858,0.1960107841663926,15
0.8901483580596766,0.13595352961826243,15
0.9001500250041674,0.10586556492804214,15
0.9101516919486582,0.054607712978364795,15
0.9201533588931489,0.02140295505537081,15
0.9301550258376396,0.028707349968026343,15
0.9401566927821304,0.019733237301423838,15
0.9501583597266211,0.014375158846569387,15
0.9601600266711119,0.0065063630221902586,15
0.9701616936156027,-0.002619961366483595,15
0.9801633605600933,0.005800064826780395,15
0.9901650275045841,0.012182945588311005,15
1.0001666944490748,0.005397712182750359,15
1.0101683613935657,-0.001295025584229191,15
1.0201700283380564,-0.04683317668311984,15
1.030171695282547,-0.047442917870500874,15
1.040173362227038,-0.058187248635353725,15
1.0501750291715286,-0.11146169950999624,15
1.0601766961160193,-0.16383509746955408,15
1.0701783630605102,-0.18114464095587846,15
1.0801800300050008,-0.2642387848298969,15
1.0901816969494915,-0.30803038248864784,15
1.1001833638939824,-0.36303659309096215,15
1.110185030838473,-0.4323282527374576,15
1.1201866977829638,-0.5198327048165294,15
1.1301883647274547,-0.5805081189247088,15
1.1401900316719453,-0.6121562620088132,15
1.1501916986164362,-0.6724520054288305,15
1.160193365560927,-0.7213459067154891,15
1.1701950325054176,-0.7404261881022997,15
1.1801966994499085,-0.7747670168982639,15
1.1901983663943991,-0.7960560636378571,15
1.2002000333388898,-0.7861429493188222,15
1.2102017002833807,-0.7301742247405811,15
1.2202033672278714,-0.7027190466287728,15
1.230205034172362,-0.6643808567433905,15
1.240206701116853,-0.5959115103738641,15
1.2502083680613436,-0.5060295172067947,15
1.2602100350058343,-0.4160003405793749,15
1.2702117019503252,-0.31552977935494486,15
1.2802133688948159,-0.21362147998282888,15
1.2902150358393065,-0.11702298744631841,15
1.3002167027837974,0.01275869158465831,15
1.310218369728288,0.13725675286602765,15
1.3202200366727788,0.2553315028849249,15
1.3302217036172697,0.36134154978308836,15
1.3402233705617603,0.4803957576702865,15
1.350225037506251,0.5476368819307099,15
1.360226704450742,0.6088799295813969,15
1.3702283713952326,0.6780047387518351,15
1.3802300383397232,0.7297554276575824,15
1.3902317052842141,0.7664587238320335,15
1.4002333722287048,0.7629412372348511,15
1.4102350391731955,0.7614497192853558,15
1.4202367061176864,0.7643826448455623,15
1.430238373062177,0.7425373308150109,15
1.440240040006668,0.7153492633150635,15
1.4502417069511586,0.6607318175093284,15
1.4602433738956493,0.6126475651222304,15
1.4702450408401402,0.567931037492373,15
1.4802467077846309,0.4805359304075047,15
1.4902483747291215,0.4072133147261474,15
1.5002500416736124,0.34582485509721855,15
1.510251708618103,0.27555172711740683,15
1.5202533755625938,0.22738791327209543,15
1.5302550425070847,0.16319363989913532,15
1.5402567094515753,0.1329139476356454,15
1.550258376396066,0.09423067771541604,15
1.560260043340557,0.05285313067887199,15
1.5702617102850476,0.04096064535765679,15
1.5802633772295382,0.023388920111288316,15
1.5902650441740291,0.01391491069788505,15
1.6002667111185198,-0.01237446479375453,15
1.6102683780630105,0.007294438390747983,15
1.6202700450075014,-0.010915504958149086,15
1.630271711951992,0.01342184438355031,15
1.6402733788964827,0.012003533485248505,15
1.6502750458409736,-0.005037680416291135,15
1.6602767127854643,0.021289076046996085,15
1.670278379729955,-0.03670499329961452,15
1.6802800466744459,-0.04734180261843255,15
1.6902817136189365,-0.07194342365070593,15
1.7002833805634272,-0.11030650294282054,15
1.710285047507918,-0.16019066885592917,15
1.7202867144524088,-0.2035359873208164,15
1.7302883813968994,-0.2649060400964463,15
1.7402900483413903,-0.30703536649333835,15
1.750291715285881,-0.39128940066019946,15
1.7602933822303717,-0.4542391205747189,15
1.7702950491748626,-0.5080030682966311,15
1.7802967161193533,-0.5571537098360259,15
1.7902983830638441,-0.6283685455054703,15
1.8003000500083348,-0.6667057057689256,15
1.8103017169528255,-0.7288378411869884,15
1.8203033838973164,-0.76352135975815,15
1.830305050841807,-0.7676813099587816,15
1.8403067177862977,-0.7736017646111962,15
1.8503083847307886,-0.7850906406566948,15
1.8603100516752793,-0.7648195352894219,15
1.87031171861977,-0.7140071685480097,15
1.8803133855642609,-0.6454646070005966,15
1.8903150525087515,-0.5723521757024426,15
1.9003167194532422,-0.5068164680031955,15
1.910318386397733,-0.3991303109038319,15
1.9203200533422238,-0.31262764871874205,15
1.9303217202867144,-0.20950788574455548,15
1.9403233872312053,-0.07015992876178304,15
1.950325054175696,0.022045588792265647,15
1.9603267211201867,0.16006454681412002,15
1.9703283880646776,0.2737406549637004,15
1.9803300550091683,0.36798152157712954,15
1.990331721953659,0.4713011258736597,15
2.0003333888981496,0.5426532048536373,15
2.0103350558426407,0.62136287869376,15
2.0203367227871314,0.674941731605597,15
2.030338389731622,0.7306588207348754,15
2.0403400566761127,0.7632601973753366,15
2.0503417236206034,0.7794516722683712,15
2.060343390565094,0.7753727165784428,15
2.070345057509585,0.7511082850203171,15
2.080346724454076,0.7271775863035999,15
2.0903483913985665,0.6750562663521226,15
2.100350058343057,0.6474321450137801,15
2.110351725287548,0.6091029324333844,15
2.1203533922320386,0.5386794392700485,15
2.1303550591765297,0.47097285432722547,15
2.1403567261210203,0.41683498564886645,15
2.150358393065511,0.35781228539960214,15
2.1603600600100017,0.2601795346648269,15
2.1703617269544924,0.23058130639694674,15
2.180363393898983,0.18168164930344227,15
2.190365060843474,0.12263465174850906,15
2.200366727787965,0.09574436531555224,15
2.2103683947324555,0.06543734494443006,15
2.220370061676946,0.018153514584320646,15
2.230371728621437,0.005029161117757698,15
2.2403733955659275,0.02153019034825259,15
2.2503750625104186,-0.006119429488572135,15
2.2603767294549093,-0.016136318419142533,15
2.2703783963994,0.006586208379014952,15
2.2803800633438907,-0.002081559529165944,15
2.2903817302883813,-0.01579100881614308,15
2.3003833972328724,-0.0007647638839722998,15
2.310385064177363,-0.028008592511642564,15
2.320386731121854,-0.030921312492137643,15
2.3303883980663445,-0.06149340490465123,15
2.340390065010835,-0.075111650869668,15
2.350391731955326,-0.120693638378001,15
2.360393398899817,-0.16820123866525877,15
2.3703950658443076,-0.19030439878945007,15
2.3803967327887983,-0.23725051500584804,15
2.390398399733289,-0.3118363968586986,15
2.4004000666777796,-0.38435077159356307,15
2.4104017336222703,-0.4468095569358002,15
2.4204034005667614,-0.5168106033496428,15
2.430405067511252,-0.5633122969393066,15
2.4404067344557427,-0.6559411776445522,15
2.4504084014002334,-0.6895459875363987,15
2.460410068344724,-0.7168241640564907,15
2.4704117352892148,-0.7507128710223988,15
2.480413402233706,-0.7693365882451342,15
2.4904150691781965,-0.8042008682513765,15
2.5004167361226872,-0.7592601838832365,15
2.510418403067178,-0.7392455201222977,15
2.5204200700116686,-0.7078169576794334,15
2.5304217369561592,-0.6397664988986191,15
2.5404234039006504,-0.5682924321853144,15
2.550425070845141,-0.5044946917252645,15
2.5604267377896317,-0.40361948927121605,15
2.5704284047341224,-0.29128596128711426,15
2.580430071678613,-0.19461973763031018,15
2.590431738623104,-0.0899404215484309,15
2.600433405567595,0.04519911675409198,15
2.6104350725120855,0.1590211143304959,15
2.620436739456576,0.24865888869903524,15
2.630438406401067,0.38064477386419915,15
2.6404400733455575,0.46318195498083925,15
2.6504417402900486,0.5643481563090793,15
2.6604434072345393,0.6468024995086054,15
2.67044507417903,0.6898144220417753,15
2.6804467411235207,0.7450258150617672,15
2.6904484080680113,0.764423635461843,15
2.700450075012502,0.7685822313445871,15
2.710451741956993,0.766385086293207,15
2.720453408901484,0.7655537023322071,15
2.7304550758459745,0.7281591567741952,15
2.740456742790465,0.6891108219946034,15
2.750458409734956,0.6532084979586809,15
2.7604600766794465,0.6019758769817056,15
2.7704617436239376,0.5351440865109045,15
2.7804634105684283,0.4575471422263508,15
2.790465077512919,0.42498042173458045,15
2.8004667444574096,0.31908184630586595,15
2.8104684114019003,0.2938820251101969,15
2.820470078346391,0.215352211600363,15
2.830471745290882,0.16600912988936956,15
2.8404734122353728,0.12309565420551896,15
2.8504750791798634,0.08016373584811658,15
2.860476746124354,0.07404357842383219,15
2.8704784130688448,0.04602889481786629,15
2.880480080013336,0.017992475301984806,15
2.8904817469578266,0.024201833779598014,15
2.9004834139023172,0.0056749596315139525,15
2.910485080846808,0.025749500063845628,15
2.9204867477912986,-0.00015467180987528773,15
2.9304884147357892,-0.0006488443504087075,15
2.9404900816802804,-0.007150881796045105,15
2.950491748624771,-0.006634320829211814,15
2.9604934155692617,-0.019427808828056267,15
2.9704950825137524,-0.04868726054465314,15
2.980496749458243,-0.04792868176939589,15
2.9904984164027337,-0.08825436003856352,15
3.000500083347225,-0.12922651518962766,15
3.0105017502917155,-0.16136795502200652,15
3.020503417236206,-0.2074448615663127,15
3.030505084180697,-0.2648598282083819,15
3.0405067511251875,-0.3378429532819133,15
3.050508418069678,-0.3903633224076235,15
3.0605100850141693,-0.43651118205110667,15
3.07051175195866,-0.5266248905417834,15
3.0805134189031507,-0.5893432272455861,15
3.0905150858476413,-0.6494517035559226,15
3.100516752792132,-0.693477524456674,15
3.1105184197366227,-0.7426322817716906,15
3.120520086681114,-0.7663713592958434,15
3.1305217536256045,-0.7894805891947483,15
3.140523420570095,-0.7887559681071961,15
3.150525087514586,-0.755772255921489,15
3.1605267544590765,-0.7394150541861901,15
3.170528421403567,-0.7033479626332718,15
3.1805300883480583,-0.6431948237050278,15
3.190531755292549,-0.5545199003414076,15
3.2005334222370396,-0.4843415663480365,15
3.2105350891815303,-0.37768358070748775,15
3.220536756126021,-0.2756358756171818,15
3.230538423070512,-0.17342774166921168,15
3.2405400900150028,-0.03874737626944051,15
3.2505417569594934,0.05230196555924374,15
3.260543423903984,0.1535412481868366,15
3.270545090848475,0.270769436591196,15
3.2805467577929655,0.38485336384596724,15
3.2905484247374566,0.464359199852011,15
3.3005500916819472,0.5523450688619818,15
3.310551758626438,0.6247602671557951,15
3.3205534255709286,0.6714351632820731,15
3.3305550925154193,0.7301221065057523,15
3.34055675945991,0.7649582030215808,15
3.350558426404401,0.795473358014502,15
3.3605600933488917,0.7804522593911435,15
3.3705617602933824,0.7788958403517242,15
3.380563427237873,0.7263971818836537,15
3.3905650941823637,0.6901081586454128,15
3.4005667611268544,0.644280141510648,15
3.4105684280713455,0.5953799264927631,15
3.420570095015836,0.5247161301982285,15
3.430571761960327,0.4576602769009447,15
3.4405734289048175,0.39738855723322025,15
3.450575095849308,0.336151033386635,15
3.460576762793799,0.26136418157049873,15
3.47057842973829,0.21393955176756987,15
3.4805800966827807,0.1654244572611588,15
3.4905817636272714,0.12757252384977083,15
3.500583430571762,0.09599865361901073,15
3.5105850975162527,0.06057387685617131,15
3.5205867644607434,0.04606814625598081,15
3.5305884314052345,0.0007624658882661971,15
3.540590098349725,-0.004524441168748566,15
3.550591765294216,0.007351898946490404,15
3.5605934322387065,-0.006334971707323233,15
3.570595099183197,0.001435424491820149,15
3.5805967661276883,0.0033467714424375346,15
3.590598433072179,0.012989231635330556,15
3.6006001000166696,0.000310259707206377,15
3.6106017669611603,-0.006388711368574232,15
3.620603433905651,-0.03266991848402105,15
3.6306051008501417,-0.06678310777348317,15
3.6406067677946328,-0.0918105663795254,15
3.6506084347391234,-0.12008274813726644,15
3.660610101683614,-0.16428908592066244,15
3.670611768628105,-0.21205859967449497,15
3.6806134355725955,-0.2778697150478743,15
3.690615102517086,-0.3444794795029815,15
3.7006167694615772,-0.3887455351701298,15
3.710618436406068,-0.4692236829656431,15
3.7206201033505586,-0.5182667325053337,15
3.7306217702950493,-0.5902118497972819,15
3.74062343723954,-0.6484067631956915,15
3.7506251041840306,-0.6886131433327755,15
3.7606267711285217,-0.7167463854917361,15
3.7706284380730124,-0.760293051299717,15
3.780630105017503,-0.7730918272150953,15
3.7906317719619937,-0.7756938204158245,15
3.8006334389064844,-0.7752324633156866,15
3.810635105850975,-0.7211136586721986,15
3.820636772795466,-0.6912299802169339,15
3.830638439739957,-0.6356173688551705,15
3.8406401066844476,-0.5540352018711239,15
3.8506417736289382,-0.4753516023400256,15
3.860643440573429,-0.4000577867791778,15
3.87064510751792,-0.2602461447644855,15
3.8806467744624107,-0.16693688770109533,15
3.8906484414069014,-0.041331569036241106,15
3.900650108351392,0.07658566350602403,15
3.9106517752958827,0.16435580668766336,15
3.9206534422403734,0.2868943904532863,15
3.9306551091848645,0.390883887516183,15
3.940656776129355,0.4995574021258843,15
3.950658443073846,0.5801223350438178,15
3.9606601100183365,0.6346066825382076,15
3.970661776962827,0.700204586566158,15
3.980663443907318,0.7520703491969866,15
3.990665110851809,0.7668382751357153,15
4.000666777796299,0.7947700363709551,15
4.01066844474079,0.7755374360494874,15
4.020670111685281,0.7675455935575138,15
4.030671778629772,0.731449068961592,15
4.040673445574263,0.6948588069105517,15
4.0506751125187535,0.6299118491091972,15
4.060676779463244,0.5888650840200507,15
4.070678446407735,0.5058063542048814,15
4.0806801133522255,0.45422286917647503,15
4.090681780296716,0.38760346270659873,15
4.100683447241207,0.33136415339408704,15
4.1106851141856975,0.2542275239424912,15
4.120686781130188,0.23043550399604323,15
4.130688448074679,0.15907946776902518,15
4.14069011501917,0.12736570931201743,15
4.150691781963661,0.09428197198049111,15
4.160693448908152,0.051512838241099014,15
4.170695115852642,0.031158008804679563,15
4.180696782797133,0.02367349055648762,15
4.190698449741624,0.0010857692026997375,15
4.200700116686114,0.0004482988244901675,15
4.210701783630605,0.016887182204554707,15
4.220703450575096,-0.009060000197477035,15
4.2307051175195864,-0.007693524410988474,15
4.240706784464077,0.006596036373592309,15
4.250708451408569,-0.016987169054832264,15
4.260710118353059,-0.016957528569820086,15
4.27071178529755,-0.048024435788163455,15
4.280713452242041,-0.043571591158018744,15
4.290715119186531,-0.08859851678723026,15
4.300716786131022,-0.12364755216302047,15
4.310718453075513,-0.17699126438658386,15
4.320720120020003,-0.22229611996851148,15
4.330721786964494,-0.2580157865315108,15
4.340723453908985,-0.3444530205468441,15
4.350725120853475,-0.3915951140337597,15
4.360726787797966,-0.46159615376374974,15
4.370728454742458,-0.5270117305878449,15
4.380730121686948,-0.6014161900121455,15
4.390731788631439,-0.6494119457759557,15
4.40073345557593,-0.7033746125504731,15
4.41073512252042,-0.7275336184875585,15
4.420736789464911,-0.7813904328236121,15
4.430738456409402,-0.7956212483656144,15
4.440740123353892,-0.7743883998308313,15
4.450741790298383,-0.7478019011871895,15
4.460743457242874,-0.7535690047854662,15
4.470745124187364,-0.6956681903756932,15
4.480746791131855,-0.6192292850868999,15
4.490748458076347,-0.5550390212420201,15
4.500750125020837,-0.46894957509482216,15
4.510751791965328,-0.3611439548748435,15
4.520753458909819,-0.2683368529868939,15
4.530755125854309,-0.15081896953685137,15
4.5407567927988,-0.04281874695562448,15
4.550758459743291,0.0868111581631264,15
4.560760126687781,0.20591716501297255,15
4.570761793632272,0.3075168324685794,15
4.580763460576763,0.4012847378178308,15
4.590765127521253,0.4950175283987351,15
4.600766794465745,0.5652061972402576,15
4.6107684614102356,0.6507312957511618,15
4.620770128354726,0.7099554663402421,15
4.630771795299217,0.7544698654947909,15
4.640773462243708,0.7753870798359517,15
4.650775129188198,0.7937632154395267,15
4.660776796132689,0.7854179859151078,15
4.67077846307718,0.7614913835906122,15
4.68078013002167,0.7148853553027807,15
4.690781796966161,0.6764780575245094,15
4.700783463910652,0.6552962736247252,15
4.710785130855142,0.5739169800818689,15
4.720786797799634,0.5192367808415937,15
4.7307884647441245,0.4598068327520631,15
4.740790131688615,0.3865562145673582,15
4.750791798633106,0.32264342533427876,15
4.7607934655775965,0.2539824807932486,15
4.770795132522087,0.19041925604821353,15
4.780796799466578,0.16636217177336007,15
4.7907984664110685,0.12420625528120081,15
4.800800133355559,0.07188069205250282,15
4.81080180030005,0.04202254037999925,15
4.820803467244541,0.031106213528194645,15
4.830805134189032,0.03035370433608089,15
4.840806801133523,-0.009776124150955906,15
4.8508084680780135,0.0037117941024377376,15
4.860810135022504,0.016720549280175266,15
4.870811801966995,-0.0025939653457725874,15
4.8808134689114855,0.003727754225247567,15
4.890815135855976,0.008141133246389485,15
4.900816802800467,-0.01151072499887947,15
4.9108184697449575,-0.03656683855352884,15
4.920820136689448,-0.05008156792017323,15
4.930821803633939,-0.07659561986903915,15
4.9408234705784295,-0.07286948163929831,15
4.950825137522921,-0.13245727662551596,15
4.960826804467412,-0.17661875250952155,15
4.970828471411902,-0.2235899140903188,15
4.980830138356393,-0.27857523609587437,15
4.990831805300884,-0.32294336612796637,15
5.0008334722453744,-0.3988534959221831,15
5.010835139189865,-0.4722174800969732,15
5.020836806134356,-0.5340948831353961,15
5.0308384730788465,-0.6149087913833635,15
5.040840140023337,-0.6457795668227472,15
5.050841806967828,-0.7001148312421728,15
5.0608434739123185,-0.7242123681236191,15
5.07084514085681,-0.7727031095412741,15
5.080846807801301,-0.7688791940801122,15
5.090848474745791,-0.7782106431863494,15
5.100850141690282,-0.7549721298435347,15
5.110851808634773,-0.728197995638736,15
5.120853475579263,-0.6801083750158932,15
5.130855142523754,-0.606443721912652,15
5.140856809468245,-0.5466337371745345,15
5.150858476412735,-0.4650578571842164,15
5.160860143357226,-0.35022630131426413,15
5.170861810301717,-0.24441068398986796,15
5.180863477246208,-0.13254989560326536,15
5.190865144190699,-0.020014032895972228,15
5.20086681113519,0.08892131316396244,15
5.21086847807968,0.19962144101861434,15
5.220870145024171,0.3174731856767834,15
5.230871811968662,0.4280960872676758,15
5.240873478913152,0.5108180919877304,15
5.250875145857643,0.5982755565669727,15
5.260876812802134,0.6616463216770617,15
5.270878479746624,0.7158873193132652,15
5.280880146691115,0.7446063211559122,15
5.290881813635606,0.7668297856342506,15
5.300883480580097,0.7788447284264781,15
5.310885147524588,0.7840436420504031,15
5.320886814469079,0.7526362165412761,15
5.330888481413569,0.7340680275485939,15
5.34089014835806,0.6589167336680192,15
5.350891815302551,0.6301621340941457,15
5.360893482247041,0.5748006160488519,15
5.370895149191532,0.5137806687585272,15
5.380896816136023,0.43384588874246777,15
5.390898483080513,0.37955576422664,15
5.400900150025004,0.3379852987466379,15
5.410901816969495,0.23538121365044185,15
5.420903483913986,0.1995575524557939,15
5.430905150858477,0.13807026602468064,15
5.440906817802968,0.11641944540217529,15
5.450908484747458,0.0710673264337949,15
5.460910151691949,0.039580598677437386,15
5.47091181863644,0.02707605326388391,15
5.48091348558093,0.0022515247235486858,15
5.490915152525421,0.004094335443275923,15
5.500916819469912,-0.007356008875358902,15
5.510918486414402,0.013749424258951213,15
5.520920153358893,-0.011629843345809734,15
5.5309218203033845,0.0036845291636854486,15
5.540923487247875,-0.0016973578068636668,15
5.550925154192366,-0.009746569001406045,15
5.5609268211368565,-0.029799200147756638,15
5.570928488081347,-0.0559431501971758,15
5.580930155025838,-0.06817412234646505,15
5.590931821970329,-0.11462023124296976,15
5.600933488914819,-0.11242899242985839,15
5.61093515585931,-0.1750730479997216,15
5.620936822803801,-0.23309027760065162,15
5.630938489748291,-0.29891619215074755,15
5.640940156692782,-0.347936439811369,15
5.6509418236372735,-0.4038430694404459,15
5.660943490581764,-0.4602130151355899,15
5.670945157526255,-0.5474779461790119,15
5.6809468244707455,-0.6139776044091062,15
5.690948491415236,-0.6590334588250139,15
5.700950158359727,-0.7115982627103699,15
5.7109518253042175,-0.731846899642161,15
5.720953492248708,-0.7631965939242504,15
5.730955159193199,-0.7740184414818595,15
5.7409568261376895,-0.7725443749437054,15
5.75095849308218,-0.7603529386049633,15
5.760960160026672,-0.7369648145081727,15
5.7709618269711624,-0.6786604573633801,15
5.780963493915653,-0.61705287740785,15
5.790965160860144,-0.5231616677714593,15
5.8009668278046345,-0.44342815808031993,15
5.810968494749125,-0.3338318634730532,15
5.820970161693616,-0.2582315646831195,15
5.8309718286381065,-0.12981178356722184,15
5.840973495582597,-0.010101232878584896,15
5.850975162527088,0.10353272943600045,15
5.8609768294715785,0.21998306295376946,15
5.870978496416069,0.31713402867497803,15
5.880980163360561,0.4209054059297339,15
5.890981830305051,0.5110616637717166,15
5.900983497249542,0.6003173756726093,15
5.910985164194033,0.6924297043466684,15
5.920986831138523,0.6985731536165726,15
5.930988498083014,0.7641833504986186,15
5.940990165027505,0.7661648075468265,15
5.950991831971995,0.7642950835195301,15
5.960993498916486,0.7678420911575363,15
5.970995165860977,0.7590225040929884,15
5.9809968328054675,0.7260465380040971,15
5.990998499749958,0.6642866664292676,15
6.00100016669445,0.6327418366959202,15
6.01100183363894,0.555352860223817,15
6.021003500583431,0.48773681908123967,15
6.031005167527922,0.4380851365587251,15
6.041006834472412,0.36590262876449187,15
6.051008501416903,0.31447225353207015,15
6.061010168361394,0.2352483311685567,15
6.071011835305884,0.17922252646488973,15
6.081013502250375,0.15493407485302552,15
6.091015169194866,0.10978912378587866,15
6.101016836139356,0.08745633440949332,15
6.111018503083848,0.022179809870757388,15
6.121020170028339,0.03942211179392295,15
6.131021836972829,0.006616184759832354,15
6.14102350391732,0.010065827932441332,15
6.151025170861811,-0.023035181030266586,15
6.161026837806301,-0.007197665481622074,15
6.171028504750792,-0.002315314550412511,15
6.181030171695283,0.007406788550277585,15
6.191031838639773,-0.012283815461815879,15
6.201033505584264,0.006348132283184767,15
6.211035172528755,-0.011042316344361145,15
6.221036839473245,-0.04790841299883189,15
6.231038506417737,-0.06208450678681746,15
6.241040173362228,-0.10282101800640688,15
6.251041840306718,-0.131838751566183,15
6.261043507251209,-0.19243243826368447,15
6.2710451741957,-0.23523675967830157,15
6.28104684114019,-0.2902056146765665,15
6.291048508084681,-0.36404339752682496,15
6.301050175029172,-0.4407465633263891,15
6.311051841973662,-0.4778087371190343,15
6.321053508918153,-0.5236382367690663,15
6.331055175862644,-0.5966024666219665,15
6.341056842807134,-0.6581386955214714,15
6.351058509751626,-0.7201123852874153,15
6.361060176696117,-0.7398618857441965,15
6.371061843640607,-0.7762418481033652,15
6.381063510585098,-0.7762813017621923,15
6.391065177529589,-0.7611986627582084,15
6.401066844474079,-0.7606674787080107,15
6.41106851141857,-0.7257843710290914,15
6.421070178363061,-0.6731429534189421,15
6.431071845307551,-0.5993583320888418,15
6.441073512252042,-0.5180069215612441,15
6.451075179196533,-0.4316278614582564,15
6.461076846141024,-0.32796076963364734,15
6.471078513085515,-0.23455904627191923,15
6.4810801800300055,-0.12180579760122774,15
6.491081846974496,-0.0071553833849479385,15
6.501083513918987,0.10439756844665449,15
6.5110851808634775,0.2177036914451163,15
6.521086847807968,0.3227764796277421,15
6.531088514752459,0.4291324720295018,15
6.54109018169695,0.5293619020088952,15
6.55109184864144,0.5957783626186124,15
6.561093515585931,0.6811435174439678,15
6.571095182530422,0.7162915845608058,15
6.581096849474913,0.7616588284897998,15
6.591098516419404,0.7788499797347145,15
6.6011001833638945,0.7799864136685368,15
6.611101850308385,0.7471490279383373,15
6.621103517252876,0.7593777694815123,15
6.6311051841973665,0.7363428392734388,15
6.641106851141857,0.6859562165842041,15
6.651108518086348,0.6073523119231673,15
6.6611101850308385,0.5498826220129179,15
6.671111851975329,0.5151914462276908,15
6.68111351891982,0.4151327678413988,15
6.6911151858643105,0.3751680632889348,15
6.701116852808802,0.2884559215759896,15
6.711118519753293,0.23185285804353478,15
6.721120186697783,0.18507399342059802,15
6.731121853642274,0.12529809145319354,15
6.741123520586765,0.09308854992996506,15
6.7511251875312555,0.05627541758867936,15
6.761126854475746,0.04439224210303953,15
6.771128521420237,0.015345302367315267,15
6.7811301883647275,0.018853415203500635,15
6.791131855309218,0.014551364380781584,15
6.801133522253709,-0.0034830768186433657,15
6.8111351891982,0.002398008294759833,15
6.821136856142691,0.005574732554760529,15
6.831138523087182,-0.002106799307605984,15
6.841140190031672,-0.00888996677900986,15
6.851141856976163,-0.002494734942147841,15
6.861143523920654,-0.02396573207938317,15
6.871145190865144,-0.06207900515852277,15
6.881146857809635,-0.06314225606012126,15
6.891148524754126,-0.10337764204983968,15
6.901150191698616,-0.14800315941314846,15
6.911151858643107,-0.18243806314623665,15
6.921153525587598,-0.2512213983075094,15
6.931155192532089,-0.30077669976296906,15
6.94115685947658,-0.3653821058440987,15
6.951158526421071,-0.4214718136152589,15
6.961160193365561,-0.49462995716078806,15
6.971161860310052,-0.542304943639457,15
6.981163527254543,-0.619449841658115,15
6.991165194199033,-0.6697132404535487,15
7.001166861143524,-0.6999597116413246,15
7.011168528088015,-0.7400297114433664,15
7.021170195032505,-0.7722096804797715,15
7.031171861976996,-0.7790516590355476,15
7.041173528921487,-0.7646655534519358,15
7.051175195865978,-0.7720260829204415,15
7.061176862810469,-0.7203065373663314,15
7.07117852975496,-0.6604076240879329,15
7.08118019669945,-0.5839205023052044,15
7.091181863643941,-0.5178932940935229,15
7.101183530588432,-0.4408508052331469,15
7.111185197532922,-0.3388787612556033,15
7.121186864477413,-0.20559349052343787,15
7.131188531421904,-0.10969350018191519,15
7.141190198366394,0.004376197118957184,15
7.151191865310885,0.09941911987655652,15
7.161193532255377,0.237138782082958,15
7.171195199199867,0.34628056901825394,15
7.181196866144358,0.44642259766514486,15
7.191198533088849,0.532934524157278,15
7.201200200033339,0.597981643103006,15
7.21120186697783,0.6549363897959012,15
7.221203533922321,0.7328145485251708,15
7.231205200866811,0.745396873649177,15
7.241206867811302,0.779420603789649,15
7.251208534755793,0.7707055365974864,15
7.261210201700283,0.7684223595439952,15
7.271211868644774,0.7495362035926536,15
7.2812135355892655,0.7122757872050377,15
7.291215202533756,0.6449167795589045,15
7.301216869478247,0.5992340042365384,15
7.311218536422738,0.5496639026269367,15
7.321220203367228,0.4853108746908111,15
7.331221870311719,0.42244531623831827,15
7.34122353725621,0.3569031374651546,15
7.3512252042007,0.3127168565737738,15
7.361226871145191,0.22872268363241213,15
7.371228538089682,0.19051639042801105,15
7.381230205034172,0.13664022412114438,15
7.391231871978664,0.09312826535551118,15
7.4012335389231545,0.06519029209944487,15
7.411235205867645,0.03547955135001103,15
7.421236872812136,0.01763469693583541,15
7.4312385397566265,0.030517863098090667,15
7.441240206701117,-0.013782643473443441,15
7.451241873645608,0.007588009765102297,15
7.4612435405900985,-0.0029829655224763696,15
7.471245207534589,-0.004240536651717481,15
7.48124687447908,-0.002662198856760267,15
7.4912485414235706,-0.0007737226493017609,15
7.501250208368061,-0.039940310928980746,15
7.511251875312553,-0.023639651963897664,15
7.5212535422570435,-0.059863964931082286,15
7.531255209201534,-0.07064564680320998,15
7.541256876146025,-0.09745444120373671,15
7.5512585430905155,-0.14293169688013993,15
7.561260210035006,-0.1986714459668218,15
7.571261876979497,-0.24263258156339984,15
7.5812635439239875,-0.2976944175864263,15
7.591265210868478,-0.3662935572279725,15
7.601266877812969,-0.4184872785755428,15
7.6112685447574595,-0.4878686444468249,15
7.62127021170195,-0.5545972033471015,15
7.631271878646442,-0.6249686553831332,15
7.641273545590932,-0.6727989209379177,15
7.651275212535423,-0.7042460162560709,15
7.661276879479914,-0.7577230393151808,15
7.671278546424404,-0.7800049762325948,15
7.681280213368895,-0.777365453398609,15
7.691281880313386,-0.773793553784143,15
7.7012835472578764,-0.750269443994867,15
7.711285214202367,-0.7031694170167717,15
7.721286881146858,-0.6479402330832303,15
7.7312885480913485,-0.5961950925179984,15
7.74129021503584,-0.514979113555345,15
7.751291881980331,-0.42354478654532224,15
7.761293548924821,-0.33781964486231275,15
7.771295215869312,-0.20674391364509145,15
7.781296882813803,-0.10634245386233245,15
7.791298549758293,0.01799866037312896,15
7.801300216702784,0.1412966605757712,15
7.811301883647275,0.23406890323135282,15
7.821303550591765,0.3614165469703745,15
7.831305217536256,0.4612689425505698,15
7.841306884480747,0.5290127138171146,15
7.851308551425237,0.6132309169881829,15
7.861310218369729,0.6795113119779531,15
7.87131188531422,0.732465522558936,15
7.88131355225871,0.7597979721925104,15
7.891315219203201,0.7808430616175801,15
7.901316886147692,0.7644861061815791,15
7.911318553092182,0.7466884197266387,15
7.921320220036673,0.7483210380133822,15
7.931321886981164,0.718392940206467,15
7.941323553925654,0.6553590317316431,15
7.951325220870145,0.6070574901381594,15
7.961326887814636,0.5315419709144991,15
7.971328554759126,0.4959929163147658,15
7.981330221703618,0.41530311383389845,15
7.991331888648109,0.35585595634335704,15
8.001333555592598,0.2854423221289,15
8.01133522253709,0.22388778405821314,15
8.02133688948158,0.19840453362194752,15
8.031338556426071,0.1367447538200841,15
8.041340223370563,0.08665685255649928,15
8.051341890315053,0.05153675212856188,15
8.061343557259544,0.02912870359288975,15
8.071345224204034,0.01192588911361395,15
8.081346891148526,0.02234108181236115,15
8.091348558093015,0.010615073257455799,15
8.101350225037507,0.013618092269877697,15
8.111351891981997,0.0012122522534047137,15
8.121353558926488,0.006314507888241042,15
8.131355225870978,0.010706004514438129,15
8.14135689281547,0.02087294350722914,15
8.151358559759961,-0.0016887285959812422,15
8.161360226704451,-0.025332390043951183,15
8.171361893648942,-0.047627318699793086,15
8.181363560593432,-0.08644029378185172,15
8.191365227537924,-0.10333373512991795,15
8.201366894482414,-0.1636269566283981,15
8.211368561426905,-0.16785419281414693,15
8.221370228371395,-0.24421744185479388,15
8.231371895315887,-0.3160011087677982,15
8.241373562260376,-0.38183675904863273,15
8.251375229204868,-0.44100897536342937,15
8.261376896149358,-0.5043817942347185,15
8.27137856309385,-0.5513731477003847,15
8.28138023003834,-0.6361094697477038,15
8.29138189698283,-0.6940375686453845,15
8.301383563927322,-0.7177753673293473,15
8.311385230871812,-0.766998682942144,15
8.321386897816303,-0.7635372865894692,15
8.331388564760793,-0.7927943017231424,15
8.341390231705285,-0.7703251787308163,15
8.351391898649775,-0.769542644680828,15
8.361393565594266,-0.7231699698456234,15
8.371395232538756,-0.6516187384995961,15
8.381396899483248,-0.5799390294847571,15
8.391398566427739,-0.5077752841449471,15
8.401400233372229,-0.40834595040213617,15
8.41140190031672,-0.30882330765803684,15
8.42140356726121,-0.1939738151037911,15
8.431405234205702,-0.08842976351497356,15
8.441406901150192,0.01894324531623505,15
8.451408568094683,0.1378502128277229,15
8.461410235039173,0.24360516033150942,15
8.471411901983664,0.34832391197745677,15
8.481413568928154,0.43456835446289077,15
8.491415235872646,0.5667677534697152,15
8.501416902817137,0.61941212080161,15
8.511418569761627,0.6827891397933695,15
8.521420236706119,0.750656675483013,15
8.531421903650608,0.7469917517735761,15
8.5414235705951,0.7680902618139501,15
8.55142523753959,0.759930876768864,15
8.561426904484081,0.7617004039958168,15
8.571428571428571,0.7346703410881567,15
8.581430238373063,0.6933817951540333,15
8.591431905317553,0.6451673640756654,15
8.601433572262044,0.5963300673743028,15
8.611435239206534,0.526332175472465,15
8.621436906151025,0.47507607474183067,15
8.631438573095517,0.4138385958994101,15
8.641440240040007,0.34487452650440736,15
8.651441906984498,0.2906841510791632,15
8.661443573928988,0.22903842640557973,15
8.67144524087348,0.17256775884715528,15
8.68144690781797,0.1288742435789701,15
8.691448574762461,0.09807455136276513,15
8.70145024170695,0.052122979761113485,15
8.711451908651442,0.029401827798299942,15
8.721453575595932,0.029523376764857424,15
8.731455242540424,0.01146161019004666,15
8.741456909484915,0.011349808785953232,15
8.751458576429405,-0.0023563118758282123,15
8.761460243373897,0.02252555891627159,15
8.771461910318386,0.006282519540693209,15
8.781463577262878,0.0017573745955226532,15
8.791465244207368,-0.01199198397856983,15
8.80146691115186,-0.009398860050843031,15
8.811468578096349,-0.027002439086943567,15
8.82147024504084,-0.01899294072539665,15
8.83147191198533,-0.07073639708196951,15
8.841473578929822,-0.09451139219685198,15
8.851475245874314,-0.1434634957590226,15
8.861476912818803,-0.1924793787501029,15
8.871478579763295,-0.2533241952057347,15
8.881480246707785,-0.3096900606633111,15
8.891481913652276,-0.3762433913807356,15
8.901483580596766,-0.4646695956380807,15
8.911485247541258,-0.4974562921229763,15
8.921486914485747,-0.5644085521611371,15
8.931488581430239,-0.6079253099853773,15
8.941490248374729,-0.6786280717904041,15
8.95149191531922,-0.7310545642823689,15
8.96149358226371,-0.7710813847412769,15
8.971495249208202,-0.7501511000204274,15
8.981496916152693,-0.7823746433394443,15
8.991498583097183,-0.7741314430094844,15
9.001500250041675,-0.7570053626372467,15
9.011501916986164,-0.6942299698795789,15
9.021503583930656,-0.6516046771295935,15
9.031505250875146,-0.5722388227604105,15
9.041506917819637,-0.5190035857690234,15
9.051508584764127,-0.4045731773462322,15
9.061510251708619,-0.28887903523616404,15
9.071511918653108,-0.19909658175147196,15
9.0815135855976,-0.06426092862246514,15
9.091515252542091,0.022552079795903814,15
9.101516919486581,0.13467493253657728,15
9.111518586431073,0.24982866458832043,15
9.121520253375563,0.3659104695255759,15
9.131521920320054,0.49091825102364867,15
9.141523587264544,0.5601379440381034,15
9.151525254209036,0.6189795134221029,15
9.161526921153525,0.68903682761382,15
9.171528588098017,0.7281461030661226,15
9.181530255042507,0.7635129867343691,15
9.191531921986998,0.783466053818672,15
9.20153358893149,0.7911370048075325,15
9.21153525587598,0.7453207363997791,15
9.221536922820471,0.7468548070091764,15
9.231538589764961,0.7030248863391473,15
9.241540256709452,0.6516144749281486,15
9.251541923653942,0.6098200034454916,15
9.261543590598434,0.5369512935168721,15
9.271545257542924,0.47872088828530246,15
9.281546924487415,0.3965722964174864,15
9.291548591431905,0.3324895172165004,15
9.301550258376396,0.2710544599515866,15
9.311551925320888,0.20598758466428757,15
9.321553592265378,0.17047967363683997,15
9.33155525920987,0.11023164889373202,15
9.34155692615436,0.09110663975905298,15
9.35155859309885,0.07997276064178135,15
9.36156026004334,0.03966012906549605,15
9.371561926987832,0.025258521671410017,15
9.381563593932322,-0.0014188686575758707,15
9.391565260876813,-0.002438496466415057,15
9.401566927821303,-0.007529633127953914,15
9.411568594765795,-0.006214857809739198,15
9.421570261710285,-0.003533479113759209,15
9.431571928654776,-0.0037633324126702277,15
9.441573595599268,0.012205731055920814,15
9.451575262543757,-0.009301988995225165,15
9.461576929488249,-0.012073344154455067,15
9.471578596432739,-0.059621076913427315,15
9.48158026337723,-0.06707986053196804,15
9.49158193032172,-0.10266748021604358,15
9.501583597266212,-0.14606455466213755,15
9.511585264210701,-0.2040165258956004,15
9.521586931155193,-0.270750711745381,15
9.531588598099683,-0.3286672595140534,15
9.541590265044174,-0.3973935915570005,15
9.551591931988666,-0.4648163420118522,15
9.561593598933156,-0.5324697685209776,15
9.571595265877647,-0.5781194330027435,15
9.581596932822137,-0.6463209627970495,15
9.591598599766629,-0.6774593926540015,15
9.601600266711118,-0.7335318068493518,15
9.61160193365561,-0.7436004619982579,15
9.6216036006001,-0.7666766270064163,15
9.631605267544591,-0.7788358277329948,15
9.641606934489081,-0.7422694655140867,15
9.651608601433573,-0.7308329369536507,15
9.661610268378064,-0.6786548489548117,15
9.671611935322554,-0.626847824228429,15
9.681613602267046,-0.5586541908858738,15
9.691615269211535,-0.5033573025054362,15
9.701616936156027,-0.4087378889117038,15
9.711618603100517,-0.28433789158817857,15
9.721620270045008,-0.18604019040985598,15
9.731621936989498,-0.05999955787835631,15
9.74162360393399,0.04533819786691355,15
9.75162527087848,0.1651382641228426,15
9.761626937822971,0.2778881059482844,15
9.77162860476746,0.37923540969086433,15
9.781630271711952,0.4678360447569921,15
9.791631938656444,0.5737532984291981,15
9.801633605600934,0.6309315441817647,15
9.811635272545425,0.6595336622726491,15
9.821636939489915,0.7378371759333231,15
9.831638606434407,0.7802042632431939,15
9.841640273378896,0.768002220338086,15
9.851641940323388,0.7673802076006416,15
9.861643607267878,0.7410023987002057,15
9.87164527421237,0.7339941586233011,15
9.881646941156859,0.6731272829142951,15
9.89164860810135,0.6456496490500808,15
9.901650275045842,0.5802317303333955,15
9.911651941990332,0.5544722499483529,15
9.921653608934824,0.455396593204473,15
9.931655275879313,0.4040245775265552,15
9.941656942823805,0.33548709034165847,15
9.951658609768295,0.2889703075329092,15
9.961660276712786,0.21379814467037775,15
9.971661943657276,0.16302456612293634,15
9.981663610601768,0.10706950906682053,15
9.991665277546257,0.0789715326036516,15
10.001666944490749,0.05644818466157824,15
10.01166861143524,0.01577060264657244,15
10.02167027837973,0.02060557339392115,15
10.031671945324222,-0.001179552654881207,15
10.041673612268712,-0.006181870457063468,15
10.051675279213203,-0.00232040912183044,15
10.061676946157693,0.0022499042046340186,15
10.071678613102184,0.002218958272142571,15
10.081680280046674,-0.01254037338292303,15
10.091681946991166,-0.002914890278365379,15
10.101683613935656,0.00381350778260843,15
10.111685280880147,-0.024297495219295598,15
10.121686947824637,-0.058345296773543276,15
10.131688614769129,-0.08231097602390046,15
10.14169028171362,-0.11123804585333913,15
10.15169194865811,-0.15907290070150976,15
10.161693615602601,-0.21602193394115773,15
10.171695282547091,-0.27455964243575526,15
10.181696949491583,-0.32747937221318923,15
10.191698616436073,-0.39698868113226404,15
10.201700283380564,-0.4673911514777341,15
10.211701950325054,-0.5224796841141005,15
10.221703617269545,-0.5883251658580136,15
10.231705284214035,-0.6520361646748646,15
10.241706951158527,-0.6789996665216744,15
10.251708618103018,-0.7342238139611421,15
10.261710285047508,-0.7674736161050127,15
10.271711951992,-0.784786932101701,15
10.28171361893649,-0.7679666083621142,15
10.291715285880981,-0.7605835750751908,15
10.30171695282547,-0.7504150210088365,15
10.311718619769962,-0.7121284504251023,15
10.321720286714452,-0.644232687573115,15
10.331721953658944,-0.5890844779378257,15
10.341723620603434,-0.47086276221536255,15
10.351725287547925,-0.38182314326088773,15
10.361726954492417,-0.29081734004869964,15
10.371728621436906,-0.17805583762648516,15
10.381730288381398,-0.0758879080883416,15
10.391731955325888,0.07082015581021486,15
10.40173362227038,0.1780328671302662,15
10.41173528921487,0.3010059202418319,15
10.42173695615936,0.3895420049097954,15
10.43173862310385,0.4968024771893511,15
10.441740290048342,0.5623260229265501,15
10.451741956992832,0.6522831008501817,15
10.461743623937323,0.6995840118981624,15
10.471745290881813,0.7437084267117282,15
10.481746957826305,0.7777351896446854,15
10.491748624770796,0.7844327188331283,15
10.501750291715286,0.7865383825656874,15
10.511751958659778,0.7476628973822862,15
10.521753625604267,0.73686783911829,15
10.531755292548759,0.7052454414128531,15
10.541756959493249,0.6423494667605812,15
10.55175862643774,0.5892510872866537,15
10.56176029338223,0.5232848896297628,15
10.571761960326722,0.4428170226283919,15
10.581763627271211,0.40775639209531783,15
10.591765294215703,0.336248362113996,15
10.601766961160195,0.27791333127487194,15
10.611768628104684,0.20873872699290083,15
10.621770295049176,0.1681430858367964,15
10.631771961993666,0.10614055232106279,15
10.641773628938157,0.06965040462385093,15
10.651775295882647,0.05981482594421281,15
10.661776962827139,0.0242011633721476,15
10.671778629771628,0.02207116587426156,15
10.68178029671612,0.014614117876820737,15
10.69178196366061,-0.002228066517553982,15
10.701783630605101,0.010471947756826238,15
10.711785297549593,0.014362508973229642,15
10.721786964494083,-0.019046498239536656,15
10.731788631438574,-0.016001184336291364,15
10.741790298383064,-0.01797060273294994,15
10.751791965327556,-0.01899675305562571,15
10.761793632272045,-0.04394999005867611,15
10.771795299216537,-0.07638935367451757,15
10.781796966161027,-0.07993412064148137,15
10.791798633105518,-0.12582102970255662,15
10.801800300050008,-0.1613324817458162,15
10.8118019669945,-0.21622191221618745,15
10.82180363393899,-0.26491224147535714,15
10.831805300883481,-0.3271644129530844,15
10.841806967827972,-0.4085411077734135,15
10.851808634772462,-0.47338536007043086,15
10.861810301716954,-0.5465140516248094,15
10.871811968661444,-0.60759148994954,15
10.881813635605935,-0.6373655329921288,15
10.891815302550425,-0.7041909780217656,15
10.901816969494917,-0.7346679461391232,15
10.911818636439406,-0.7644013566995026,15
10.921820303383898,-0.7867761005443596,15
10.931821970328388,-0.7691697656299554,15
10.94182363727288,-0.7736284091379442,15
10.95182530421737,-0.7125689531151906,15
10.96182697116186,-0.699662356063436,15
10.971828638106352,-0.6274614576510511,15
10.981830305050842,-0.534446968485941,15
10.991831971995333,-0.4807206537331653,15
11.001833638939823,-0.3875990410824966,15
11.011835305884315,-0.2852240774542251,15
11.021836972828805,-0.16690151253386745,15
11.031838639773296,-0.047877578105796355,15
11.041840306717786,0.08564059980780747,15
11.051841973662277,0.1845406716732798,15
11.061843640606769,0.29085072871443696,15
11.071845307551259,0.4036507903542752,15
11.08184697449575,0.4926862456017417,15
11.09184864144024,0.5739485653246654,15
11.101850308384732,0.6577631613564306,15
11.111851975329222,0.7035233097701252,15
11.121853642273713,0.7315339369172311,15
11.131855309218203,0.7500596586527403,15
11.141856976162694,0.7793020992690711,15
11.151858643107184,0.7709450255666785,15
11.161860310051676,0.7597381105818828,15
11.171861976996166,0.7287731949895224,15
11.181863643940657,0.6836653154267586,15
11.191865310885149,0.6158890118045297,15
11.201866977829638,0.5603641314206762,15
11.21186864477413,0.5068164075268682,15
11.22187031171862,0.4136071037682185,15
11.231871978663111,0.39490598887390943,15
11.241873645607601,0.3257348028118039,15
11.251875312552093,0.2601578039944101,15
11.261876979496583,0.20156436602805694,15
11.271878646441074,0.18620336055380593,15
11.281880313385564,0.12096492624667601,15
11.291881980330055,0.0712774316656314,15
11.301883647274547,0.048078628971390557,15
11.311885314219037,0.018634191314663602,15
11.321886981163528,0.013380272860038534,15
11.331888648108018,-0.008528076845233774,15
11.34189031505251,0.015331636805762076,15
11.351891981997,-0.008445148940784145,15
11.361893648941491,0.0038151117274304812,15
11.37189531588598,-0.011223069476766143,15
11.381896982830472,-0.01787501133067309,15
11.391898649774962,-0.02138109017691671,15
11.401900316719454,-0.03216570196275789,15
11.411901983663945,-0.050480503790648557,15
11.421903650608435,-0.061712081473814254,15
11.431905317552927,-0.07456450915738999,15
11.441906984497416,-0.11895815547766496,15
11.451908651441908,-0.17351018917579522,15
11.461910318386398,-0.2236473258639184,15
11.47191198533089,-0.2705913233788564,15
11.481913652275379,-0.35144377994534,15
11.49191531921987,-0.4081512880136928,15
11.50191698616436,-0.45918907711876444,15
11.511918653108852,-0.5361998797293785,15
11.521920320053344,-0.6073841072949134,15
11.531921986997833,-0.6633196223754785,15
11.541923653942325,-0.7075394152674669,15
11.551925320886815,-0.7402576479944702,15
11.561926987831306,-0.7721777229674498,15
11.571928654775796,-0.7829562330553601,15
11.581930321720288,-0.763581550171092,15
11.591931988664777,-0.7731887008076409,15
11.601933655609269,-0.7217595053876568,15
11.611935322553759,-0.6981180532832013,15
11.62193698949825,-0.6068576478949851,15
11.63193865644274,-0.5410272437225424,15
11.641940323387232,-0.48327245788772283,15
11.651941990331723,-0.35832637129118655,15
11.661943657276213,-0.2662479405790968,15
11.671945324220705,-0.13305530722079142,15
11.681946991165194,-0.024626450677661834,15
11.691948658109686,0.06915177361755852,15
11.701950325054176,0.1857100637209419,15
11.711951991998667,0.3056293652651542,15
11.721953658943157,0.4092914874624789,15
11.731955325887649,0.511789673439786,15
11.741956992832138,0.593394774499178,15
11.75195865977663,0.64807554279746,15
11.761960326721121,0.7200364413059406,15
11.771961993665611,0.7253670979285661,15
11.781963660610103,0.7719899885626555,15
11.791965327554593,0.7787383364565604,15
11.801966994499084,0.7837118332913368,15
11.811968661443574,0.7425928095870925,15
11.821970328388065,0.7156827225428544,15
11.831971995332555,0.6753844477820549,15
11.841973662277047,0.6180131192523539,15
11.851975329221537,0.5744215114908735,15
11.861976996166028,0.5002285041805432,15
11.87197866311052,0.4506934920795544,15
11.88198033005501,0.3708834843803345,15
11.891981996999501,0.32415040740289824,15
11.90198366394399,0.2553355255361771,15
11.911985330888482,0.2024578121615682,15
11.921986997832972,0.14937363480253318,15
11.931988664777464,0.10075525289450353,15
11.941990331721954,0.08452587223613607,15
11.951991998666445,0.047660726255638976,15
11.961993665610935,0.010905687887876603,15
11.971995332555426,0.0005737181933268658,15
11.981996999499916,0.009581043804658861,15
11.991998666444408,0.007433181711429597,15
12.0020003333889,-0.012924641480130106,15
12.01200200033339,-0.0032016163441835176,15
12.02200366727788,-0.013679575291590342,15
12.03200533422237,-0.018678762840387705,15
12.042007001166862,-0.004602191819083827,15
12.052008668111352,-0.014553653888620014,15
12.062010335055843,-0.03594460573362313,15
12.072012002000333,-0.06700984684822033,15
12.082013668944825,-0.07898921201356772,15
12.092015335889315,-0.11400120244402258,15
12.102017002833806,-0.16529886557609072,15
12.112018669778298,-0.22597218660818075,15
12.122020336722787,-0.2923039366515749,15
12.132022003667279,-0.34335345084683244,15
12.142023670611769,-0.41158111722747937,15
12.15202533755626,-0.4741702132537088,15
12.16202700450075,-0.5535983388576108,15
12.172028671445242,-0.5948671277975248,15
12.182030338389731,-0.6602540167172768,15
12.192032005334223,-0.7028892418065843,15
12.202033672278713,-0.7381569700653724,15
12.212035339223204,-0.7521021868724427,15
12.222037006167696,-0.7943664338761504,15
12.232038673112186,-0.7983232446162853,15
12.242040340056677,-0.7656956539781508,15
12.252042007001167,-0.7138113828858519,15
12.262043673945659,-0.6840426564611705,15
12.272045340890148,-0.6358191544130006,15
12.28204700783464,-0.5229152069897974,15
12.29204867477913,-0.45013821012127186,15
12.302050341723621,-0.35505619576560926,15
12.312052008668111,-0.23871290231072095,15
12.322053675612603,-0.13707908430046786,15
12.332055342557092,-0.029760328724125686,15
12.342057009501584,0.08042375157491025,15
12.352058676446076,0.19889779198132904,15
12.362060343390565,0.29932901563794856,15
12.372062010335057,0.43655526979693554,15
12.382063677279547,0.5255029189749977,15
12.392065344224038,0.5942536111678445,15
12.402067011168528,0.6672282376205504,15
12.41206867811302,0.7175422526621689,15
12.42207034505751,0.7650246103810739,15
12.432072012002001,0.7590407878926051,15
12.44207367894649,0.7923405765712859,15
12.452075345890982,0.7752343101965227,15
12.462077012835474,0.7424565135750368,15
12.472078679779964,0.7181057603081684,15
12.482080346724455,0.6709929135718223,15
12.492082013668945,0.6153913851502127,15
12.502083680613437,0.5791488359254955,15
12.512085347557926,0.5091047651659734,15
12.522087014502418,0.4390610951214565,15
12.532088681446908,0.3802052927575393,15
12.5420903483914,0.3075173698882172,15
12.552092015335889,0.25191316495998184,15
12.56209368228038,0.17544653109259184,15
12.572095349224872,0.1305940629690514,15
12.582097016169362,0.08884048685541555,15
12.592098683113853,0.06968530952259776,15
12.602100350058343,0.040761549563741076,15
12.612102017002835,0.04199541935736187,15
12.622103683947325,0.0026280751929796276,15
12.632105350891816,0.0066668332883911075,15
12.642107017836306,0.013897121874090482,15
12.652108684780798,-0.011729252755523004,15
12.662110351725287,0.023380707760048584,15
12.672112018669779,-0.005568159378367224,15
12.682113685614269,-0.011503246808724067,15
12.69211535255876,-0.009787426571981827,15
12.702117019503252,-0.02312339213370889,15
12.712118686447742,-0.032358373663875936,15
12.722120353392233,-0.08564157741055828,15
12.732122020336723,-0.09761179758281616,15
12.742123687281214,-0.15007212405516707,15
12.752125354225704,-0.17912934920654733,15
12.762127021170196,-0.2391477070200519,15
12.772128688114686,-0.2923414243668013,15
12.782130355059177,-0.3661951716879012,15
12.792132022003667,-0.41946822448129756,15
12.802133688948159,-0.4699265757524556,15
12.81213535589265,-0.5525596157192302,15
12.82213702283714,-0.6104519566789238,15
12.832138689781631,-0.6532627538209665,15
12.842140356726121,-0.6979090339679638,15
12.852142023670613,-0.7467104551466044,15
12.862143690615103,-0.7628182994051056,15
12.872145357559594,-0.7645282536321122,15
12.882147024504084,-0.7860710710036608,15
12.892148691448575,-0.7598978348844696,15
12.902150358393065,-0.719260115215658,15
12.912152025337557,-0.674582484278298,15
12.922153692282048,-0.6008568556450838,15
12.932155359226538,-0.5328331559483174,15
12.94215702617103,-0.4446382431531949,15
12.95215869311552,-0.34655858647030974,15
12.962160360060011,-0.23030163815306418,15
12.9721620270045,-0.13633153273979082,15
12.982163693948992,-0.018827040993528006,15
12.992165360893482,0.10781466408303238,15
13.002167027837974,0.21880932368330608,15
13.012168694782464,0.3230933449579289,15
13.022170361726955,0.40210330013229595,15
13.032172028671445,0.5131703606557622,15
13.042173695615936,0.6074014522441975,15
13.052175362560428,0.6809357217253095,15
13.062177029504918,0.7269160729876104,15
13.07217869644941,0.7444902950929718,15
13.0821803633939,0.7770064866636306,15
13.09218203033839,0.7907408966051199,15
13.10218369728288,0.7795619713633118,15
13.112185364227372,0.7531642896590551,15
13.122187031171862,0.7442649614006279,15
13.132188698116353,0.6597676269165251,15
13.142190365060843,0.6096041359474526,15
13.152192032005335,0.5598641180983404,15
13.162193698949826,0.4871367494963644,15
13.172195365894316,0.43832645079705007,15
13.182197032838808,0.368971730426607,15
13.192198699783297,0.32131158162540535,15
13.202200366727789,0.23633028393384709,15
13.212202033672279,0.1774752243848438,15
13.22220370061677,0.12873067852231393,15
13.23220536756126,0.09884144872939807,15
13.242207034505752,0.06900099568800115,15
13.252208701450241,0.049739723911266666,15
13.262210368394733,0.027575562805245105,15
13.272212035339225,0.005191323159413126,15
13.282213702283714,0.0006036479464030745,15
13.292215369228206,0.014556585539312425,15
13.302217036172696,0.0033829926676217648,15
13.312218703117187,0.018039994004956515,15
13.322220370061677,0.0017116166211294933,15
13.332222037006169,-0.008210950724709752,15
13.342223703950658,-0.002166205009797995,15
13.35222537089515,-0.01274723905861002,15
13.36222703783964,-0.0485308934879784,15
13.372228704784131,-0.07775917922732202,15
13.382230371728621,-0.0915317076505422,15
13.392232038673113,-0.13995549460005954,15
13.402233705617604,-0.1860136943739358,15
13.412235372562094,-0.2470331433725055,15
13.422237039506586,-0.29299931202010165,15
13.432238706451075,-0.37581612396901803,15
13.442240373395567,-0.44025031821424404,15
13.452242040340057,-0.49681504726769565,15
13.462243707284548,-0.5461965074072519,15
13.472245374229038,-0.6079646901050456,15
13.48224704117353,-0.6599678638967247,15
13.49224870811802,-0.7063725933496486,15
13.502250375062511,-0.7488104022319975,15
13.512252042007002,-0.7486661110326359,15
13.522253708951492,-0.7774983826340135,15
13.532255375895984,-0.7750754962728028,15
13.542257042840474,-0.7688840217978913,15
13.552258709784965,-0.7026726674299927,15
13.562260376729455,-0.6683150050622345,15
13.572262043673947,-0.6065506069677316,15
13.582263710618436,-0.534624944208803,15
13.592265377562928,-0.420393316855103,15
13.602267044507418,-0.3148527988720974,15
13.61226871145191,-0.22426423441842797,15
13.6222703783964,-0.1381174576453603,15
13.63227204534089,-0.01339030647567224,15
13.642273712285382,0.11454533843506848,15
13.652275379229872,0.22207674800765517,15
13.662277046174363,0.34912728202024085,15
13.672278713118853,0.43589665950317735,15
13.682280380063345,0.5173111791625679,15
13.692282047007835,0.6017358053682613,15
13.702283713952326,0.6765512300016758,15
13.712285380896816,0.7313888467660724,15
13.722287047841307,0.7566231298421987,15
13.732288714785797,0.7747269881437414,15
13.742290381730289,0.7964982789463625,15
13.75229204867478,0.7798408705103163,15
13.76229371561927,0.7503208059997107,15
13.772295382563762,0.7157500224269459,15
13.782297049508252,0.6658770065928883,15
13.792298716452743,0.6223849662714092,15
13.802300383397233,0.5487782560587301,15
13.812302050341724,0.5014001341253586,15
13.822303717286214,0.4062041580552163,15
13.832305384230706,0.3516995667640931,15
13.842307051175196,0.2940070798906768,15
13.852308718119687,0.2243839967383334,15
13.862310385064179,0.18712746618416365,15
13.872312052008668,0.14252818976087125,15
13.88231371895316,0.1052852976959018,15
13.89231538589765,0.05674288357248657,15
13.902317052842141,0.040476569972815415,15
13.912318719786631,0.021860015628885038,15
13.922320386731123,0.024953223771731956,15
13.932322053675612,0.010320510747730537,15
13.942323720620104,-0.0004915529614972324,15
13.952325387564594,0.008605396727670118,15
13.962327054509085,-0.014451134048789524,15
13.972328721453577,0.019821101625120213,15
13.982330388398067,-0.014199395087204829,15
13.992332055342558,-0.008680151901419601,15
14.002333722287048,-0.021977601778323398,15
14.01233538923154,-0.03823195772278369,15
14.02233705617603,-0.05919458068126987,15
14.032338723120521,-0.10509166669606401,15
14.04234039006501,-0.15443720942066305,15
14.052342057009502,-0.1769692990686011,15
14.062343723953992,-0.24805179073576483,15
14.072345390898484,-0.3019773434341302,15
14.082347057842973,-0.3776928194255999,15
14.092348724787465,-0.4443438964294766,15
14.102350391731957,-0.5043723496469444,15
14.112352058676446,-0.5570489134749941,15
14.122353725620938,-0.6179959400557858,15
14.132355392565428,-0.667593594072537,15
14.14235705950992,-0.7202259467595071,15
14.152358726454409,-0.7555193173423046,15
14.1623603933989,-0.7771214275367565,15
14.17236206034339,-0.7802764405755864,15
14.182363727287882,-0.7769029850117888,15
14.192365394232372,-0.7564874972494858,15
14.202367061176863,-0.7151583643658439,15
14.212368728121355,-0.6633053486608695,15
14.222370395065845,-0.6115048232559872,15
14.232372062010336,-0.5371483850634524,15
14.242373728954826,-0.4283897871606354,15
14.252375395899318,-0.3360368240265564,15
14.262377062843807,-0.2387060757843022,15
14.272378729788299,-0.10213672628945494,15
14.282380396732789,0.014301437636020584,15
14.29238206367728,0.13158892232066,15
14.30238373062177,0.24090976902303715,15
14.312385397566262,0.3579582220998864,15
14.322387064510753,0.44398792494385636,15
14.332388731455243,0.5346423261262238,15
14.342390398399735,0.6103186966241936,15
14.352392065344224,0.654829774533317,15
14.362393732288716,0.7294153123888579,15
14.372395399233206,0.7542799656096324,15
14.382397066177697,0.7782358355339715,15
14.392398733122187,0.785708822575858,15
14.402400400066679,0.7655952018790971,15
14.412402067011168,0.7327699495514987,15
14.42240373395566,0.7272121238835756,15
14.432405400900151,0.6518709024918279,15
14.442407067844641,0.5907972726652669,15
14.452408734789133,0.536840704502782,15
14.462410401733623,0.48210441278607646,15
14.472412068678114,0.42735936611783204,15
14.482413735622604,0.36094109167891036,15
14.492415402567095,0.29014670393661784,15
14.502417069511585,0.23473847373406312,15
14.512418736456077,0.17886796105397845,15
14.522420403400567,0.13855487146398984,15
14.532422070345058,0.0691326933727787,15
14.542423737289548,0.07093656588104713,15
14.55242540423404,0.03737973187432362,15
14.562427071178531,0.02350119690502218,15
14.57242873812302,0.023788423033506076,15
14.582430405067512,0.017875409481373804,15
14.592432072012002,-0.0063309317575750606,15
14.602433738956494,0.004986060053296,15
14.612435405900984,-0.020929309545415796,15
14.622437072845475,-0.020699883963066698,15
14.632438739789965,0.012200604608639653,15
14.642440406734456,-0.013683752232449178,15
14.652442073678946,-0.02197901641759621,15
14.662443740623438,-0.06520484379074741,15
14.67244540756793,-0.06065358225201952,15
14.68244707451242,-0.1054984255616921,15
14.69244874145691,-0.16188130771340375,15
14.7024504084014,-0.17465604470386742,15
14.712452075345892,-0.2604351830530436,15
14.722453742290382,-0.31126038904244946,15
14.732455409234873,-0.3747302561350929,15
14.742457076179363,-0.4359371369312802,15
14.752458743123855,-0.5104554487567452,15
14.762460410068345,-0.5622002777723992,15
14.772462077012836,-0.630608386079576,15
14.782463743957328,-0.6912638441501221,15
14.792465410901817,-0.7287831964387397,15
14.802467077846309,-0.7563729644075381,15
14.812468744790799,-0.771382456644966,15
14.82247041173529,-0.7787719246824236,15
14.83247207867978,-0.7624067233144801,15
14.842473745624272,-0.7556280917273672,15
14.852475412568761,-0.6943778696610909,15
14.862477079513253,-0.6695886052247427,15
14.872478746457743,-0.5813597078074471,15
14.882480413402234,-0.5090169281196133,15
14.892482080346724,-0.4219301360758358,15
14.902483747291216,-0.3011531232218935,15
14.912485414235707,-0.20890608121584384,15
14.922487081180197,-0.08078160863749352,15
14.932488748124689,0.016143347476486724,15
14.942490415069178,0.1372000051353451,15
14.95249208201367,0.24133328971556206,15
14.96249374895816,0.36982350522966034,15
14.972495415902651,0.4621446325819863,15
14.982497082847141,0.5513886174010292,15
14.992498749791633,0.6151818285404628,15
15.002500416736122,0.6942537318190743,15
15.012502083680614,0.7261187505118408,15
15.022503750625106,0.7688030381549906,15
15.032505417569595,0.7772705952149284,15
15.042507084514087,0.7673195375021972,15
15.052508751458577,0.7696233155771587,15
15.062510418403068,0.7452638095692465,15
15.072512085347558,0.7055808128763805,15
15.08251375229205,0.6526817555802249,15
15.09251541923654,0.5913466570805094,15
15.102517086181031,0.5497316763345288,15
15.11251875312552,0.4883555697945397,15
15.122520420070012,0.4244657325169335,15
15.132522087014504,0.34207507973335277,15
15.142523753958994,0.2816949323384931,15
15.152525420903485,0.23148765464880947,15
15.162527087847975,0.17818263964552533,15
15.172528754792467,0.12183061151237246,15
15.182530421736956,0.07762729949883206,15
15.192532088681448,0.053371519869376945,15
15.202533755625938,0.02925086194589871,15
15.21253542257043,0.024861157539591432,15
15.222537089514919,0.028253406533030868,15
15.23253875645941,0.01170387668830775,15
15.2425404234039,-0.013693063545347453,15
15.252542090348392,-0.00773403909029372,15
15.262543757292883,0.010763218387865538,15
15.272545424237373,0.007375071597685735,15
15.282547091181865,-0.0034882224265773087,15
15.292548758126355,-0.012678988755301131,15
15.302550425070846,-0.01728232771304377,15
15.312552092015336,-0.06054064199751622,15
15.322553758959828,-0.04831792676683493,15
15.332555425904317,-0.11619485278654935,15
15.342557092848809,-0.15265490779303328,15
15.352558759793299,-0.22184449541208573,15
15.36256042673779,-0.2781870419841068,15
15.372562093682282,-0.32518897011386044,15
15.382563760626772,-0.39357316078077736,15
15.392565427571263,-0.44435053037136885,15
15.402567094515753,-0.5168769783957843,15
15.412568761460244,-0.5743656998515643,15
15.422570428404734,-0.6296709000520485,15
15.432572095349226,-0.680383063961994,15
15.442573762293716,-0.7124056024313232,15
15.452575429238207,-0.7393664323862124,15
15.462577096182697,-0.7642612863239371,15
15.472578763127188,-0.7851995226347004,15
15.48258043007168,-0.7757250290520886,15
15.49258209701617,-0.7538915030319085,15
15.502583763960661,-0.6939273230196803,15
15.512585430905151,-0.662500290567818,15
15.522587097849643,-0.5826465256940372,15
15.532588764794133,-0.5049573160692458,15
15.542590431738624,-0.40015385534548126,15
15.552592098683114,-0.31710401206154243,15
15.562593765627605,-0.21738606500319757,15
15.572595432572095,-0.0845407970372529,15
15.582597099516587,0.04392841270206664,15
15.592598766461077,0.12315749999760887,15
15.602600433405568,0.2758559216320344,15
15.61260210035006,0.3622362987978651,15
15.62260376729455,0.47731666161295183,15
15.632605434239041,0.5579830846301527,15
15.64260710118353,0.63813818152139,15
15.652608768128022,0.6748985443545074,15
15.662610435072512,0.7227412433326925,15
15.672612102017004,0.7660493848156895,15
15.682613768961494,0.7850648388584703,15
15.692615435905985,0.7693866064758114,15
15.702617102850475,0.75080583601692,15
15.712618769794966,0.7215347025077015,15
15.722620436739458,0.685398200326,15
15.732622103683948,0.6601209406227911,15
15.74262377062844,0.593195662674506,15
15.752625437572929,0.5260355722537665,15
15.76262710451742,0.476037544077995,15
15.77262877146191,0.410003656655407,15
15.782630438406402,0.3548978620462915,15
15.792632105350892,0.29232239048973085,15
15.802633772295383,0.22560371236181587,15
15.812635439239873,0.17323509144791482,15
15.822637106184365,0.11408438247438443,15
15.832638773128856,0.08294924151852916,15
15.842640440073346,0.06408850558670451,15
15.852642107017838,0.01947662826523998,15
15.862643773962327,0.01790224506269069,15
15.872645440906819,0.0017854322016578397,15
15.882647107851309,-0.0024458336645838364,15
15.8926487747958,0.009984042794171966,15
15.90265044174029,-0.02444163724238893,15
15.912652108684782,-0.001991685595923946,15
15.922653775629271,-0.00033036868256961513,15
15.932655442573763,0.014701455205165335,15
15.942657109518253,-0.024170597551083757,15
15.952658776462744,-0.04171538635371248,15
15.962660443407236,-0.05043512949845188,15
15.972662110351726,-0.06508355929271784,15
15.982663777296217,-0.1092437114131724,15
15.992665444240707,-0.1654288629944412,15
16.002667111185197,-0.20755519692267924,15
16.01266877812969,-0.24430894979894435,15
16.02267044507418,-0.31322050901477577,15
16.03267211201867,-0.3910074024595999,15
16.04267377896316,-0.46559484498642895,15
16.052675445907653,-0.5308825816495427,15
16.062677112852143,-0.5859850526258462,15
16.072678779796632,-0.6258669336286307,15
16.082680446741126,-0.6959304682994368,15
16.092682113685616,-0.7186976523445262,15
16.102683780630105,-0.748498863840067,15
16.112685447574595,-0.771453176459874,15
16.12268711451909,-0.7710669731618185,15
16.132688781463578,-0.7644695264414838,15
16.142690448408068,-0.7420608402639077,15
16.152692115352558,-0.6839040171080719,15
16.16269378229705,-0.6518347711423673,15
16.17269544924154,-0.589043318252427,15
16.18269711618603,-0.49980709107440047,15
16.192698783130524,-0.40496664003765226,15
16.202700450075014,-0.2947011361724809,15
16.212702117019504,-0.18734001596776664,15
16.222703783963993,-0.06714763425571695,15
16.232705450908487,0.062376468075517014,15
16.242707117852976,0.15869913518473444,15
16.252708784797466,0.2735822357150946,15
16.262710451741956,0.36072910163794686,15
16.27271211868645,0.46050671642916247,15
16.28271378563094,0.5510390558183388,15
16.29271545257543,0.640645149478244,15
16.302717119519922,0.6928430868557803,15
16.312718786464412,0.7261620319142991,15
16.322720453408902,0.7728029889990202,15
16.33272212035339,0.765140758683423,15
16.342723787297885,0.7724875622725113,15
16.352725454242375,0.7533037359745687,15
16.362727121186865,0.741650008125947,15
16.372728788131354,0.6874750589905197,15
16.382730455075848,0.6414809915698652,15
16.392732122020337,0.5752016514495966,15
16.402733788964827,0.522380741528444,15
16.41273545590932,0.4656100808113717,15
16.42273712285381,0.3943417555856294,15
16.4327387897983,0.3199816758125946,15
16.44274045674279,0.2729612786974519,15
16.452742123687283,0.20690489951217042,15
16.462743790631773,0.17764489472501901,15
16.472745457576263,0.1226481150387867,15
16.482747124520753,0.07763062319818323,15
16.492748791465246,0.0447317222685892,15
16.502750458409736,0.03463858076098477,15
16.512752125354226,0.020860450810712715,15
16.522753792298715,-0.00020383788207602345,15
16.53275545924321,0.013930022267750614,15
16.5427571261877,-0.00535041792670177,15
16.55275879313219,-0.0034795146838474066,15
16.56276046007668,0.006225142065344771,15
16.57276212702117,-0.008619014440734547,15
16.58276379396566,-0.011251460155800707,15
16.59276546091015,-0.018849816406796498,15
16.602767127854644,-0.02168473338204047,15
16.612768794799134,-0.047815134749101235,15
16.622770461743624,-0.0645662748321548,15
16.632772128688114,-0.13001779620325987,15
16.642773795632607,-0.15882238752385128,15
16.652775462577097,-0.22440641171628167,15
16.662777129521587,-0.26339530008339956,15
16.67277879646608,-0.32702755303065095,15
16.68278046341057,-0.3876990396046106,15
16.69278213035506,-0.4577736045614839,15
16.70278379729955,-0.5097270182088818,15
16.712785464244043,-0.5610594557706203,15
16.722787131188532,-0.6417958312257813,15
16.732788798133022,-0.6849811186825356,15
16.742790465077512,-0.7154525240922446,15
16.752792132022005,-0.7476126605437663,15
16.762793798966495,-0.7720900633142349,15
16.772795465910985,-0.7710608984678341,15
16.782797132855478,-0.7736058654682173,15
16.792798799799968,-0.7460660542049116,15
16.802800466744458,-0.6840203107991897,15
16.812802133688947,-0.6362500091454076,15
16.82280380063344,-0.5766965483406681,15
16.83280546757793,-0.4806407458129677,15
16.84280713452242,-0.4019072422542758,15
16.85280880146691,-0.27987089501630835,15
16.862810468411404,-0.19115182632835329,15
16.872812135355893,-0.07056351106289896,15
16.882813802300383,0.04991045485462528,15
16.892815469244876,0.17903748310465617,15
16.902817136189366,0.26983455445093557,15
16.912818803133856,0.3898786225450382,15
16.922820470078346,0.4844551527915268,15
16.93282213702284,0.5699773583559089,15
16.94282380396733,0.6288517357748538,15
16.95282547091182,0.7123045582320221,15
16.96282713785631,0.7393449512181767,15
16.972828804800802,0.7706229411407371,15
16.98283047174529,0.7836789898951041,15
16.99283213868978,0.7843800948193245,15
17.002833805634275,0.754860826439842,15
17.012835472578764,0.7278251938469403,15
17.022837139523254,0.6839373927836797,15
17.032838806467744,0.6429605013235032,15
17.042840473412237,0.5772929674054103,15
17.052842140356727,0.5266980340896225,15
17.062843807301217,0.4420598361670848,15
17.072845474245707,0.37903903541603,15
17.0828471411902,0.3225324668753439,15
17.09284880813469,0.27792570412498263,15
17.10285047507918,0.20448287959475078,15
17.112852142023673,0.13783349675532036,15
17.122853808968163,0.12296523179344215,15
17.132855475912653,0.0678243331199178,15
17.142857142857142,0.0399546886541089,15
17.152858809801636,0.027543024181565914,15
17.162860476746125,0.03602265622564231,15
17.172862143690615,0.019188040568844593,15
17.182863810635105,-0.00482634207493004,15
17.1928654775796,0.01692746625724766,15
17.202867144524088,0.0019949365111604596,15
17.212868811468578,0.01306760172912915,15
17.222870478413068,0.0017079137119395144,15
17.23287214535756,-0.0073608954883238875,15
17.24287381230205,-0.025058070791133424,15
17.25287547924654,-0.0389668308946246,15
17.262877146191034,-0.05706905998585333,15
17.272878813135524,-0.06378395740699497,15
17.282880480080014,-0.1289170134634319,15
17.292882147024503,-0.16067960125401462,15
17.302883813968997,-0.22462641122311075,15
17.312885480913486,-0.2694706289733314,15
17.322887147857976,-0.3329479147530488,15
17.332888814802466,-0.39419349177668683,15
17.34289048174696,-0.45521929749891615,15
17.35289214869145,-0.5330727264441908,15
17.36289381563594,-0.5834414480645872,15
17.372895482580432,-0.6372679634866499,15
17.382897149524922,-0.7022928195805566,15
17.392898816469412,-0.713912835310851,15
17.4029004834139,-0.77804418933876,15
17.412902150358395,-0.7901136691038397,15
17.422903817302885,-0.785275766478632,15
17.432905484247375,-0.7636749296340988,15
17.442907151191864,-0.7400525319203836,15
17.452908818136358,-0.6911023335860083,15
17.462910485080847,-0.6333609573013844,15
17.472912152025337,-0.5641393316292029,15
17.48291381896983,-0.49146184717178854,15
17.49291548591432,-0.40509253822316876,15
17.50291715285881,-0.2721242302415013,15
17.5129188198033,-0.1688764213862335,15
17.522920486747793,-0.05115322515921959,15
17.532922153692283,0.07388746482699658,15
17.542923820636773,0.1863166837241139,15
17.552925487581263,0.29550782316440743,15
17.562927154525756,0.4005267817958923,15
17.572928821470246,0.4830889529904917,15
17.582930488414735,0.560355973709587,15
17.59293215535923,0.632868148799269,15
17.60293382230372,0.6796752632033467,15
17.61293548924821,0.746502490680388,15
17.622937156192698,0.7757711924874617,15
17.63293882313719,0.7948005068787957,15
17.64294049008168,0.7840680397154632,15
17.65294215702617,0.7536310715634238,15
17.66294382397066,0.7223036726367087,15
17.672945490915154,0.6827655154165411,15
17.682947157859644,0.6408565998152241,15
17.692948824804134,0.5751173400540869,15
17.702950491748627,0.5103103921634545,15
17.712952158693117,0.4617192425451962,15
17.722953825637607,0.3851501761187349,15
17.732955492582096,0.33552799096988983,15
17.74295715952659,0.255670732739888,15
17.75295882647108,0.2163714546011461,15
17.76296049341557,0.14544979988034404,15
17.77296216036006,0.10952072814335695,15
17.782963827304552,0.07229783496689768,15
17.792965494249042,0.06144923779020759,15
17.802967161193532,0.03537922138978012,15
17.812968828138025,0.008737930461413313,15
17.822970495082515,0.009918742452310291,15
17.832972162027005,-0.00012208120641846805,15
17.842973828971495,-0.01682265574020173,15
17.852975495915988,-0.006625074748964739,15
17.862977162860478,0.00988504456188106,15
17.872978829804968,-0.002446817240555065,15
17.882980496749457,-0.006951954539063706,15
17.89298216369395,-0.021797069154199773,15
17.90298383063844,-0.02980454850097534,15
17.91298549758293,-0.05708370695170707,15
17.92298716452742,-0.07264747203170306,15
17.932988831471913,-0.10713718400857501,15
17.942990498416403,-0.17372174682361705,15
17.952992165360893,-0.24026753596771408,15
17.962993832305386,-0.2712763570149136,15
17.972995499249876,-0.3391544142675015,15
17.982997166194366,-0.4027627084987948,15
17.992998833138856,-0.46722163954644547,15
18.00300050008335,-0.5261358937955474,15
18.01300216702784,-0.5823030524078551,15
18.02300383397233,-0.6488383237114959,15
18.03300550091682,-0.6967475470173078,15
18.04300716786131,-0.7375358101237763,15
18.0530088348058,-0.7611227826576892,15
18.06301050175029,-0.7769855904466847,15
18.073012168694785,-0.7756300254460793,15
18.083013835639274,-0.755790297870487,15
18.093015502583764,-0.7310723220169277,15
18.103017169528254,-0.705330021538572,15
18.113018836472747,-0.6312023996023197,15
18.123020503417237,-0.5570211695022131,15
18.133022170361727,-0.45548588428661974,15
18.143023837306217,-0.3656566258290676,15
18.15302550425071,-0.24569962111399712,15
18.1630271711952,-0.14959323274639344,15
18.17302883813969,-0.027650203514843215,15
18.183030505084183,0.09874082699441299,15
18.193032172028673,0.1956809012906747,15
18.203033838973163,0.3051432971964079,15
18.213035505917652,0.40233363036662,15
18.223037172862146,0.47907686064225846,15
18.233038839806635,0.5732927579307554,15
18.243040506751125,0.6506392295673489,15
18.253042173695615,0.7086913992455968,15
18.26304384064011,0.7316581558720068,15
18.273045507584598,0.7709393855224721,15
18.283047174529088,0.7828327998771764,15
18.29304884147358,0.7674318259066273,15
18.30305050841807,0.7517041466001866,15
18.31305217536256,0.7188026066529856,15
18.32305384230705,0.6839772209853129,15
18.333055509251544,0.6346950853165522,15
18.343057176196034,0.5755415938294237,15
18.353058843140523,0.5267052218049617,15
18.363060510085013,0.4545574816714314,15
18.373062177029507,0.39608583621813725,15
18.383063843973996,0.33061739159003806,15
18.393065510918486,0.24477456318217972,15
18.40306717786298,0.18917479085358221,15
18.41306884480747,0.1634194324784192,15
18.42307051175196,0.12099622834315349,15
18.43307217869645,0.09136186998656703,15
18.443073845640942,0.04084554854661809,15
18.453075512585432,0.027992095889085373,15
18.463077179529922,0.01686343605612687,15
18.47307884647441,-0.013771714138650675,15
18.483080513418905,0.013792707058443196,15
18.493082180363395,-0.003226866269484357,15
18.503083847307884,-0.006365034516344515,15
18.513085514252378,-0.0163674074397118,15
18.523087181196868,0.012275801455452748,15
18.533088848141357,-0.015155196383229017,15
18.543090515085847,-0.014957066222021177,15
18.55309218203034,-0.045744051937952945,15
18.56309384897483,-0.054523298918885466,15
18.57309551591932,-0.10153946373526322,15
18.58309718286381,-0.1249532881361721,15
18.593098849808303,-0.18038291039065785,15
18.603100516752793,-0.24921956757615177,15
18.613102183697283,-0.27981921822438044,15
18.623103850641776,-0.35541783925021947,15
18.633105517586266,-0.4176565713442646,15
18.643107184530756,-0.474158200793114,15
18.653108851475245,-0.5366169544503789,15
18.66311051841974,-0.6129715095234263,15
18.67311218536423,-0.6408306472934744,15
18.68311385230872,-0.7198150014209794,15
18.693115519253208,-0.7345382017990936,15
18.7031171861977,-0.7588419987613008,15
18.71311885314219,-0.783793634267077,15
18.72312052008668,-0.7692911890975228,15
18.73312218703117,-0.7632413737684077,15
18.743123853975664,-0.7246465658861608,15
18.753125520920154,-0.6806637248056842,15
18.763127187864644,-0.6150191052289828,15
18.773128854809137,-0.5483013790204333,15
18.783130521753627,-0.45482765792252905,15
18.793132188698117,-0.3542922506908425,15
18.803133855642606,-0.2627613641621152,15
18.8131355225871,-0.16095100767049075,15
18.82313718953159,-0.009460581925639294,15
18.83313885647608,0.1040656749454906,15
18.84314052342057,0.19674876436256739,15
18.853142190365062,0.3011497466601915,15
18.863143857309552,0.40007300654595546,15
18.873145524254042,0.5085383783141441,15
18.883147191198535,0.5917197064244799,15
18.893148858143025,0.6384978345475317,15
18.903150525087515,0.725748799241089,15
18.913152192032005,0.7622888217322252,15
18.923153858976498,0.7732385173578837,15
18.933155525920988,0.7721629106483694,15
18.943157192865478,0.7688448478024322,15
18.953158859809967,0.7602480540907537,15
18.96316052675446,0.7086199656353156,15
18.97316219369895,0.683862711355037,15
18.98316386064344,0.6293951912550984,15
18.993165527587934,0.5644011425349507,15
19.003167194532423,0.4975528162453737,15
19.013168861476913,0.432484730363466,15
19.023170528421403,0.36132668683769736,15
19.033172195365896,0.31833095586585536,15
19.043173862310386,0.23785692381673817,15
19.053175529254876,0.18800225732692943,15
19.063177196199366,0.16379318342966653,15
19.07317886314386,0.096427411163523,15
19.08318053008835,0.06125228609465211,15
19.09318219703284,0.039296283034260256,15
19.103183863977332,0.04405568145882191,15
19.11318553092182,0.004800720335212654,15
19.12318719786631,-0.008864761954258074,15
19.1331888648108,-0.006401332833084569,15
19.143190531755295,0.005134893364074438,15
19.153192198699784,0.01435479955974232,15
19.163193865644274,-0.002988654007229424,15
19.173195532588764,-0.019521299905128135,15
19.183197199533257,0.006680242807079104,15
19.193198866477747,-0.02542894814767,15
19.203200533422237,-0.03654953899303625,15
19.21320220036673,-0.07707086271495003,15
19.22320386731122,-0.08422798133581598,15
19.23320553425571,-0.1343479178620946,15
19.2432072012002,-0.16406423429150618,15
19.253208868144693,-0.23791235042210215,15
19.263210535089183,-0.28088499816276397,15
19.273212202033672,-0.365788043707401,15
19.283213868978162,-0.4104155464109495,15
19.293215535922656,-0.46965215972241053,15
19.303217202867145,-0.5584191024774405,15
19.313218869811635,-0.6080787380621779,15
19.32322053675613,-0.661540414167968,15
19.33322220370062,-0.7091045549372414,15
19.343223870645108,-0.7414922827271526,15
19.353225537589598,-0.7468646143790325,15
19.36322720453409,-0.7856051708994527,15
19.37322887147858,-0.7862005004389035,15
19.38323053842307,-0.7636548367380073,15
19.39323220536756,-0.7199085388656999,15
19.403233872312054,-0.6702717596249844,15
19.413235539256544,-0.6224056074254306,15
19.423237206201033,-0.5469192488798105,15
19.433238873145523,-0.4650265876976423,15
19.443240540090017,-0.3303953146425883,15
19.453242207034506,-0.2582873567552554,15
19.463243873978996,-0.13189477051547063,15
19.47324554092349,-0.026106895549799045,15
19.48324720786798,0.08200221492593003,15
19.49324887481247,0.23255402192484476,15
19.50325054175696,0.30539126000525935,15
19.513252208701452,0.4400485509176205,15
19.523253875645942,0.5306898328541815,15
19.53325554259043,0.5873754418862666,15
19.54325720953492,0.6603417875849047,15
19.553258876479415,0.7049286764587039,15
19.563260543423905,0.7462740624549821,15
19.573262210368394,0.7611965587770794,15
19.583263877312888,0.7819867213342888,15
19.593265544257378,0.7620783457341948,15
19.603267211201867,0.7511665725157599,15
19.613268878146357,0.7259158786126568,15
19.62327054509085,0.664650522407849,15
19.63327221203534,0.6051678051159082,15
19.64327387897983,0.5507975844451731,15
19.65327554592432,0.509081773302544,15
19.663277212868813,0.4231163412917264,15
19.673278879813303,0.37684009285193787,15
19.683280546757793,0.3036303532373198,15
19.693282213702286,0.24021486493187463,15
19.703283880646776,0.19771178935324007,15
19.713285547591266,0.13930962400035324,15
19.723287214535755,0.10260153625904304,15
19.73328888148025,0.07785662449869477,15
19.74329054842474,0.038229053578148715,15
19.75329221536923,0.009419479544294403,15
19.763293882313718,0.0205810489315075,15
19.77329554925821,0.003827012290967735,15
19.7832972162027,-0.009123971360687022,15
19.79329888314719,0.018480940986949225,15
19.803300550091684,0.009631104297462924,15
19.813302217036174,4.852914568406752e-06,15
19.823303883980664,0.008993082197995867,15
19.833305550925154,-0.012255137155580489,15
19.843307217869647,-0.03504181642243057,15
19.853308884814137,-0.04947512025072141,15
19.863310551758627,-0.06912463640783818,15
19.873312218703116,-0.08409446936504794,15
19.88331388564761,-0.1398504644030792,15
19.8933155525921,-0.18137995454717457,15
19.90331721953659,-0.24190015059795006,15
19.913318886481083,-0.2951199558365251,15
19.923320553425572,-0.345489842438666,15
19.933322220370062,-0.408827161269884,15
19.943323887314552,-0.4874084365993707,15
19.953325554259045,-0.5491704094379908,15
19.963327221203535,-0.5928459974045011,15
19.973328888148025,-0.6652842606841674,15
19.983330555092515,-0.7273189253962952,15
19.993332222037008,-0.7234179775446463,15
20.003333888981498,-0.7713430214197138,15
20.013335555925988,-0.7720063505393341,15
20.02333722287048,-0.7771570653669884,15
20.03333888981497,-0.7561258556026352,15
20.04334055675946,-0.7229789520370259,15
20.05334222370395,-0.6716146437504695,15
20.063343890648444,-0.6188572375591285,15
20.073345557592933,-0.541049417581306,15
20.083347224537423,-0.42539427680957237,15
20.093348891481913,-0.3426429069919579,15
20.103350558426406,-0.22724155113621328,15
20.113352225370896,-0.11699210361771005,15
20.123353892315386,-0.026774516215930078,15
20.133355559259876,0.10742404486903362,15
20.14335722620437,0.2226647386958031,15
20.15335889314886,0.3284226039057496,15
20.16336056009335,0.42387415600642636,15
20.173362227037842,0.5120729326242379,15
20.18336389398233,0.5957964838849569,15
20.19336556092682,0.6758968174435394,15
20.20336722787131,0.7181302433834614,15
20.213368894815805,0.7333911584808226,15
20.223370561760294,0.7788446655900527,15
20.233372228704784,0.7714914615951114,15
20.243373895649274,0.7735926752568248,15
20.253375562593767,0.7580469299619218,15
20.263377229538257,0.710356907516548,15
20.273378896482747,0.6639276406274892,15
20.28338056342724,0.6116509353425473,15
20.29338223037173,0.545540533931016,15
20.30338389731622,0.48618112301288013,15
20.31338556426071,0.44138988151491265,15
20.323387231205203,0.34717168328187054,15
20.333388898149693,0.3014810699909112,15
20.343390565094182,0.2451018790273133,15
20.353392232038672,0.1956188982763662,15
20.363393898983166,0.13356510375683298,15
20.373395565927655,0.0918880996124514,15
20.383397232872145,0.054398065693295056,15
20.39339889981664,0.04025307215044043,15
20.40340056676113,0.024768792744793895,15
20.413402233705618,0.011426198280913473,15
20.423403900650108,-0.0017535321042579871,15
20.4334055675946,-0.011249299870392887,15
20.44340723453909,0.004353597505973779,15
20.45340890148358,0.0009641486609309005,15
20.46341056842807,-0.011455233362455741,15
20.473412235372564,0.009948696753632103,15
20.483413902317054,-0.021555095771243656,15
20.493415569261543,-0.015557862941204157,15
20.503417236206037,-0.029585471058748064,15
20.513418903150527,-0.07955192771252986,15
20.523420570095016,-0.07806007739132578,15
20.533422237039506,-0.16063178141726733,15
20.543423903984,-0.18251997288771737,15
20.55342557092849,-0.23700968664919503,15
20.56342723787298,-0.2939238730470168,15
20.57342890481747,-0.3611933942458362,15
20.583430571761962,-0.4285381108993905,15
20.593432238706452,-0.4836559727699448,15
20.60343390565094,-0.5442384591355658,15
20.613435572595435,-0.6180502569628973,15
20.623437239539925,-0.6669100460320814,15
20.633438906484415,-0.6987273517909299,15
20.643440573428904,-0.7490839657145627,15
20.653442240373398,-0.7745501083423538,15
20.663443907317887,-0.7872436689646923,15
20.673445574262377,-0.7662482399515546,15
20.683447241206867,-0.7589825332588945,15
20.69344890815136,-0.7453176377871763,15
20.70345057509585,-0.6517367769395404,15
20.71345224204034,-0.6209088476265396,15
20.723453908984833,-0.5230381281967739,15
20.733455575929323,-0.4301135448947404,15
20.743457242873813,-0.3434199993145075,15
20.753458909818303,-0.22758415827151388,15
20.763460576762796,-0.09767195595359562,15
20.773462243707286,0.01503766759374119,15
20.783463910651776,0.09443789272170716,15
20.793465577596265,0.23599664241797308,15
20.80346724454076,0.33585559617808036,15
20.81346891148525,0.443964541951718,15
20.82347057842974,0.5404714427716469,15
20.83347224537423,0.6143190018765308,15
20.84347391231872,0.6509346817812538,15
20.85347557926321,0.723036255756959,15
20.8634772462077,0.7482130500059595,15
20.873478913152194,0.7845272926491492,15
20.883480580096684,0.7703012290659847,15
20.893482247041174,0.7581028712141689,15
20.903483913985664,0.7384921490779784,15
20.913485580930157,0.701532092529248,15
20.923487247874647,0.6582174592555571,15
20.933488914819137,0.6074261965256375,15
20.943490581763626,0.5387371534669776,15
20.95349224870812,0.5059147215666094,15
20.96349391565261,0.4227171420935657,15
20.9734955825971,0.34017805947079766,15
20.983497249541593,0.30533835689022965,15
20.993498916486082,0.23438262291344086,15
21.003500583430572,0.17787077457750136,15
21.013502250375062,0.1293271121892333,15
21.023503917319555,0.11084332975340465,15
21.033505584264045,0.045483923224858606,15
21.043507251208535,0.018259667596730787,15
21.053508918153025,0.031134763804306298,15
21.063510585097518,0.011068699987869624,15
21.073512252042008,-0.005217573431531992,15
21.083513918986498,-0.012328701732934946,15
21.09351558593099,-0.0022078726710125928,15
21.10351725287548,-0.0025312225319079453,15
21.11351891981997,-0.027706464261663406,15
21.12352058676446,-0.005313304935526739,15
21.133522253708954,-0.027250674851675098,15
21.143523920653443,-0.019968532379416745,15
21.153525587597933,-0.04149962460251652,15
21.163527254542423,-0.07368427687412363,15
21.173528921486916,-0.10965791134436205,15
21.183530588431406,-0.1433023431353138,15
21.193532255375896,-0.19598052898729781,15
21.20353392232039,-0.2485420489560816,15
21.21353558926488,-0.30572056262160546,15
21.22353725620937,-0.3760552861788559,15
21.23353892315386,-0.42433549814017807,15
21.243540590098352,-0.498181468418203,15
21.25354225704284,-0.5564896029611173,15
21.26354392398733,-0.613752512638858,15
21.27354559093182,-0.6682805084331414,15
21.283547257876315,-0.7295760344225084,15
21.293548924820804,-0.7554055650879474,15
21.303550591765294,-0.7684146177427398,15
21.313552258709787,-0.7761141974049398,15
21.323553925654277,-0.7718904604631495,15
21.333555592598767,-0.7642535707842736,15
21.343557259543257,-0.7233856179787173,15
21.35355892648775,-0.6724452733163752,15
21.36356059343224,-0.5991489987154514,15
21.37356226037673,-0.5310558481700101,15
21.38356392732122,-0.4337451817663574,15
21.393565594265713,-0.332654412110403,15
21.403567261210203,-0.20850499723719804,15
21.413568928154692,-0.0822624037651469,15
21.423570595099186,0.015029502972506208,15
21.433572262043675,0.13470383336941752,15
21.443573928988165,0.2306789022527961,15
21.453575595932655,0.35477355649439135,15
21.46357726287715,0.4341206091761525,15
21.473578929821638,0.5413206919237549,15
21.483580596766128,0.6189352987491047,15
21.493582263710618,0.6576100505311536,15
21.50358393065511,0.7233332872095714,15
21.5135855975996,0.7623715095044998,15
21.52358726454409,0.7784816509774399,15
21.533588931488584,0.7797917244492586,15
21.543590598433074,0.757388455706358,15
21.553592265377564,0.7506030445193271,15
21.563593932322053,0.7246695354048747,15
21.573595599266547,0.6455577693167172,15
21.583597266211036,0.6023880103866021,15
21.593598933155526,0.5551441741648275,15
21.603600600100016,0.47583026689912233,15
21.61360226704451,0.4057253177131193,15
21.623603933989,0.3416472469645325,15
21.63360560093349,0.2933540658555548,15
21.64360726787798,0.22912174603682,15
21.653608934822472,0.18400508188663198,15
21.663610601766962,0.1455133502111794,15
21.67361226871145,0.08665587345303648,15
21.683613935655945,0.06813493899324544,15
21.693615602600435,0.019011484060170947,15
21.703617269544925,0.005322360093136282,15
21.713618936489414,0.017215170134721937,15
21.723620603433908,-0.00337508382634608,15
21.733622270378397,0.008304779908882587,15
21.743623937322887,0.0012717066258993031,15
21.753625604267377,0.0007520681038781166,15
21.76362727121187,-0.0027282148488327034,15
21.77362893815636,-0.011397493046142302,15
21.78363060510085,0.0001947553628465857,15
21.793632272045343,-0.017212804154477332,15
21.803633938989833,-0.052473605280357355,15
21.813635605934323,-0.07668026108847391,15
21.823637272878813,-0.0979048020191738,15
21.833638939823306,-0.13081561950413256,15
21.843640606767796,-0.17786037257415857,15
21.853642273712286,-0.2553238596515785,15
21.863643940656775,-0.3121462169961091,15
21.87364560760127,-0.36392566988145997,15
21.88364727454576,-0.42803865942124114,15
21.893648941490248,-0.515848870805282,15
21.90365060843474,-0.5501069982482083,15
21.91365227537923,-0.6310848096464122,15
21.92365394232372,-0.6902882951364007,15
21.93365560926821,-0.7219420215261474,15
21.943657276212704,-0.7456829353698721,15
21.953658943157194,-0.7823728178095907,15
21.963660610101684,-0.7759943583169239,15
21.973662277046174,-0.7597076908678395,15
21.983663943990667,-0.7465522344542368,15
21.993665610935157,-0.7050053273994643,15
22.003667277879646,-0.6460420683768577,15
22.01366894482414,-0.5715580518347675,15
22.02367061176863,-0.5113338462767127,15
22.03367227871312,-0.3850684870076873,15
22.04367394565761,-0.30588078414843917,15
22.053675612602103,-0.21377353922467215,15
22.063677279546592,-0.1038786603824326,15
22.073678946491082,0.032459559131866295,15
22.083680613435572,0.1564349940740605,15
22.093682280380065,0.25072532483983706,15
22.103683947324555,0.36121819753124434,15
22.113685614269045,0.4512786971395918,15
22.123687281213538,0.5430927100789495,15
22.133688948158028,0.6307960114613285,15
22.143690615102518,0.6814006734781087,15
22.153692282047007,0.7322733057591945,15
22.1636939489915,0.7785756010467548,15
22.17369561593599,0.7913384272809281,15
22.18369728288048,0.7932521849818669,15
22.19369894982497,0.7816390441320755,15
22.203700616769463,0.7463423898587337,15
22.213702283713953,0.6953332374697343,15
22.223703950658443,0.6562909836081801,15
22.233705617602936,0.6035699852018578,15
22.243707284547426,0.5263057906413953,15
22.253708951491916,0.45897684042994313,15
22.263710618436406,0.4184587831453135,15
22.2737122853809,0.32949634559905255,15
22.28371395232539,0.28812828740652907,15
22.29371561926988,0.2347674957125678,15
22.30371728621437,0.19144018262507048,15
22.313718953158862,0.12836381439727457,15
22.32372062010335,0.09622616294172216,15
22.33372228704784,0.0667670726760529,15
22.34372395399233,0.03480965598176406,15
22.353725620936824,0.005036309295932101,15
22.363727287881314,-0.0021974549534803448,15
22.373728954825804,0.008416007919040434,15
22.383730621770297,-0.0036297283111222196,15
22.393732288714787,0.008893034795922048,15
22.403733955659277,-0.0002142513940717418,15
22.413735622603767,-0.01145433791310943,15
22.42373728954826,-0.020515490000800336,15
22.43373895649275,-0.020167800452523716,15
22.44374062343724,-0.03157216962250744,15
22.45374229038173,-0.029283156855773446,15
22.463743957326223,-0.07560811399114944,15
22.473745624270713,-0.13514770381363106,15
22.483747291215202,-0.1430333661350765,15
22.493748958159696,-0.2100027802451145,15
22.503750625104185,-0.2542993248618189,15
22.513752292048675,-0.3131832154223814,15
22.523753958993165,-0.3835064432356305,15
22.53375562593766,-0.4352166037631997,15
22.543757292882148,-0.505226046673236,15
22.553758959826638,-0.5616767337029027,15
22.563760626771128,-0.6406344846031191,15
22.57376229371562,-0.6795616281047043,15
22.58376396066011,-0.7353725943749292,15
22.5937656276046,-0.7488691717578294,15
22.603767294549094,-0.7956832329871113,15
22.613768961493584,-0.7718249117304136,15
22.623770628438074,-0.7681066211068373,15
22.633772295382563,-0.7259235728702226,15
22.643773962327057,-0.7095501944329257,15
22.653775629271546,-0.6399737839286658,15
22.663777296216036,-0.5993287119019812,15
22.673778963160526,-0.5050374127558017,15
22.68378063010502,-0.4282003815142703,15
22.69378229704951,-0.3051255245588989,15
22.703783963994,-0.1837455703954603,15
22.713785630938492,-0.07777661018206326,15
22.723787297882982,0.04097728249431683,15
22.733788964827472,0.15277392331622397,15
22.74379063177196,0.2726392033285129,15
22.753792298716455,0.3784444616449327,15
22.763793965660945,0.4790495900177863,15
22.773795632605434,0.5551367400189212,15
22.783797299549924,0.6343940178303912,15
22.793798966494418,0.6731246313335705,15
22.803800633438907,0.7356330613823061,15
22.813802300383397,0.7711060200162142,15
22.82380396732789,0.7784544162961355,15
22.83380563427238,0.780523272261282,15
22.84380730121687,0.7603095799851336,15
22.85380896816136,0.7444356966917297,15
22.863810635105853,0.7041926091531958,15
22.873812302050343,0.6450697705157035,15
22.883813968994833,0.5998638056237178,15
22.893815635939323,0.5359168869716627,15
22.903817302883816,0.4448503330083285,15
22.913818969828306,0.41404987505826035,15
22.923820636772795,0.3348111106067274,15
22.93382230371729,0.28472283377452706,15
22.94382397066178,0.2265155431248027,15
22.95382563760627,0.1864853296719163,15
22.963827304550758,0.13943144245339373,15
22.97382897149525,0.0881203243268334,15
22.98383063843974,0.05495553659444491,15
22.99383230538423,0.016458489926066622,15
23.00383397232872,0.03024534608080793,15
23.013835639273214,0.0004839540704239115,15
23.023837306217704,0.005675721407020231,15
23.033838973162194,-0.003474333870530514,15
23.043840640106687,0.00027256277250940606,15
23.053842307051177,0.005743262485337871,15
23.063843973995667,-0.0051180565922577465,15
23.073845640940156,-0.014135312744943632,15
23.08384730788465,-0.011438350914071374,15
23.09384897482914,-0.021273894317126563,15
23.10385064177363,-0.05050135765011852,15
23.11385230871812,-0.08391656362576529,15
23.123853975662612,-0.11722200259887368,15
23.133855642607102,-0.15269844219304723,15
23.143857309551592,-0.22718094806585315,15
23.153858976496082,-0.25115517141508265,15
23.163860643440575,-0.3112796743430353,15
23.173862310385065,-0.36957130028044716,15
23.183863977329555,-0.45723488645031457,15
23.193865644274048,-0.5333167233406021,15
23.203867311218538,-0.5878098148026649,15
23.213868978163028,-0.6348444108334808,15
23.223870645107517,-0.6777029287353059,15
23.23387231205201,-0.7392883648306326,15
23.2438739789965,-0.7480142914340085,15
23.25387564594099,-0.7704995673566413,15
23.26387731288548,-0.7890673287490512,15
23.273878979829973,-0.7842186068242647,15
23.283880646774463,-0.7455204163446846,15
23.293882313718953,-0.706010149343443,15
23.303883980663446,-0.6512627882181874,15
23.313885647607936,-0.56570176326051,15
23.323887314552426,-0.5026435087907217,15
23.333888981496916,-0.3959360471666949,15
23.34389064844141,-0.28959413178874177,15
23.3538923153859,-0.16500322819780094,15
23.36389398233039,-0.06907216316693696,15
23.37389564927488,0.05764589914524847,15
23.38389731621937,0.15464035400411136,15
23.39389898316386,0.2855021781769739,15
23.40390065010835,0.3651491356676171,15
23.413902317052845,0.47470076750773105,15
23.423903983997334,0.5676283082473115,15
23.433905650941824,0.6318389524958432,15
23.443907317886314,0.6889911633613406,15
23.453908984830807,0.7369678920070863,15
23.463910651775297,0.7688667962957998,15
23.473912318719787,0.7679045379367508,15
23.483913985664277,0.7932547841793024,15
23.49391565260877,0.7673430990096871,15
23.50391731955326,0.7067147925570602,15
23.51391898649775,0.6921806447152276,15
23.523920653442243,0.6489186089999672,15
23.533922320386733,0.601070605713102,15
23.543923987331222,0.52707279273807,15
23.553925654275712,0.47716270036034786,15
23.563927321220206,0.3986249743352406,15
23.573928988164695,0.3285687962018555,15
23.583930655109185,0.2706420887354935,15
23.593932322053675,0.2159272873120398,15
23.60393398899817,0.1563753133200741,15
23.613935655942658,0.11955802267823067,15
23.623937322887148,0.10200819057213356,15
23.63393898983164,0.05714696479707286,15
23.64394065677613,0.03437850168365995,15
23.65394232372062,0.017177680420894653,15
23.66394399066511,0.006306763823774144,15
23.673945657609604,-0.0010965225411841656,15
23.683947324554094,0.003597407933164016,15
23.693948991498583,-0.0086589860224436,15
23.703950658443073,0.018890252166124312,15
23.713952325387567,0.006292869510633082,15
23.723953992332056,-0.02412728058643055,15
23.733955659276546,-0.0071271051769206,15
23.74395732622104,-0.03094498094172358,15
23.75395899316553,-0.06576670277679093,15
23.76396066011002,-0.08717054305602588,15
23.77396232705451,-0.11466197644730046,15
23.783963993999002,-0.16661719253933802,15
23.793965660943492,-0.21323806759602845,15
23.80396732788798,-0.28934584586656276,15
23.81396899483247,-0.33495783742483237,15
23.823970661776965,-0.4068550685442266,15
23.833972328721455,-0.4683159195084007,15
23.843973995665944,-0.5334581884591335,15
23.853975662610434,-0.6018086863806303,15
23.863977329554928,-0.6460770791852647,15
23.873978996499417,-0.6766568022315421,15
23.883980663443907,-0.7223277715807069,15
23.8939823303884,-0.7567476842072588,15
23.90398399733289,-0.7794101609631621,15
23.91398566427738,-0.7895711413850387,15
23.92398733122187,-0.7648270591074547,15
23.933988998166363,-0.7181347354663448,15
23.943990665110853,-0.7090680738815933,15
23.953992332055343,-0.6183329841566099,15
23.963993998999833,-0.5594902625122353,15
23.973995665944326,-0.47845368139522315,15
23.983997332888816,-0.3815549293848971,15
23.993998999833305,-0.2876134075332934,15
24.0040006667778,-0.17136519362814837,15
24.01400233372229,-0.04533678971759399,15
24.02400400066678,0.06375851331827811,15
24.034005667611268,0.14233754858969552,15
24.04400733455576,0.2898784750345149,15
24.05400900150025,0.4037595391530445,15
24.06401066844474,0.4966924629286752,15
24.07401233538923,0.5635094561262676,15
24.084014002333724,0.6174889901887085,15
24.094015669278214,0.6847523806226403,15
24.104017336222704,0.7506716367769527,15
24.114019003167197,0.7685351732865479,15
24.124020670111687,0.7729636173990316,15
24.134022337056177,0.7547470351471975,15
24.144024004000666,0.7674119018982974,15
24.15402567094516,0.7260152944358564,15
24.16402733788965,0.6885157053778423,15
24.17402900483414,0.6343247887370312,15
24.18403067177863,0.5777246985649926,15
24.194032338723122,0.5293831302435443,15
24.204034005667612,0.4574723854268973,15
24.214035672612102,0.3716618644044369,15
24.224037339556595,0.31949270770272253,15
24.234039006501085,0.2531934939171757,15
24.244040673445575,0.23452188288864184,15
24.254042340390065,0.16176350714760154,15
24.264044007334558,0.1275698459263419,15
24.274045674279048,0.08473454963803619,15
24.284047341223538,0.04890022027200929,15
24.294049008168027,0.03594016847700694,15
24.30405067511252,-0.0016815659616779763,15
24.31405234205701,0.0006231416955963191,15
24.3240540090015,-0.0038347023185411272,15
24.334055675945994,-0.00596245966336715,15
24.344057342890483,0.0003764662802133595,15
24.354059009834973,-0.0033778073176691566,15
24.364060676779463,-0.01260224288572019,15
24.374062343723956,-0.004811366462478929,15
24.384064010668446,-0.018225521306069043,15
24.394065677612936,-0.03156914338634843,15
24.404067344557426,-0.07141820477279974,15
24.41406901150192,-0.09586186082388914,15
24.42407067844641,-0.12515142143695712,15
24.4340723453909,-0.16461005006767634,15
24.444074012335392,-0.22298362666115798,15
24.45407567927988,-0.26982210248635186,15
24.46407734622437,-0.3348118887221698,15
24.47407901316886,-0.38039221899787706,15
24.484080680113355,-0.46321120921135644,15
24.494082347057844,-0.5422469694878432,15
24.504084014002334,-0.5965461437932129,15
24.514085680946824,-0.6421140511826401,15
24.524087347891317,-0.7042938411122944,15
24.534089014835807,-0.7471783022413182,15
24.544090681780297,-0.7527491150287091,15
24.554092348724787,-0.7621620029887058,15
24.56409401566928,-0.773622477197496,15
24.57409568261377,-0.7727502062878335,15
24.58409734955826,-0.7386395882926892,15
24.594099016502753,-0.698553382272501,15
24.604100683447243,-0.6329394063705863,15
24.614102350391732,-0.5584831481587075,15
24.624104017336222,-0.48253706455934037,15
24.634105684280716,-0.3986576128552747,15
24.644107351225205,-0.2683644669395986,15
24.654109018169695,-0.15628588871318838,15
24.664110685114185,-0.047720916591545044,15
24.67411235205868,0.07787782022650712,15
24.684114019003168,0.19522093682281358,15
24.694115685947658,0.30174866317782906,15
24.70411735289215,0.3978778006652141,15
24.71411901983664,0.5071669163664322,15
24.72412068678113,0.5643829064502986,15
24.73412235372562,0.6444608407697716,15
24.744124020670114,0.7044113586724859,15
24.754125687614604,0.7605610671991051,15
24.764127354559093,0.7579091617739158,15
24.774129021503583,0.7737796942761601,15
24.784130688448077,0.7612424664176565,15
24.794132355392566,0.7533560696028783,15
24.804134022337056,0.7324389119652321,15
24.81413568928155,0.6813316070019273,15
24.82413735622604,0.6408423339444721,15
24.83413902317053,0.5835486620474908,15
24.84414069011502,0.5071856847520878,15
24.854142357059512,0.45747239002677786,15
24.864144024004002,0.38966941309657693,15
24.87414569094849,0.3284672485896784,15
24.88414735789298,0.268565783485278,15
24.894149024837475,0.20855045524118335,15
24.904150691781965,0.15896937653344334,15
24.914152358726454,0.10667200218420067,15
24.924154025670948,0.07059213622825941,15
24.934155692615438,0.06328227357153675,15
24.944157359559927,0.03182572389831961,15
24.954159026504417,0.02720433780029724,15
24.96416069344891,0.008202319134180406,15
24.9741623603934,-0.004512392735781727,15
24.98416402733789,0.010304222515515861,15
24.99416569428238,-0.004329528739391987,15
25.004167361226873,-0.014179022129823344,15
25.014169028171363,0.007655154726634687,15
25.024170695115853,-0.017873321990449706,15
25.034172362060346,-0.031034897119950958,15
25.044174029004836,-0.026725008679503136,15
25.054175695949326,-0.06521757596948022,15
25.064177362893815,-0.07117279272956853,15
25.07417902983831,-0.12226916857738002,15
25.0841806967828,-0.15811140711424032,15
25.09418236372729,-0.2108314370939532,15
25.104184030671778,-0.27248465601186106,15
25.11418569761627,-0.3309505613668801,15
25.12418736456076,-0.4093244979594616,15
25.13418903150525,-0.474903797232698,15
25.144190698449744,-0.5243946515788477,15
25.154192365394234,-0.5925611857040313,15
25.164194032338724,-0.6419892778797881,15
25.174195699283214,-0.6935670002313721,15
25.184197366227707,-0.735401623348303,15
25.194199033172197,-0.7774865945670377,15
25.204200700116687,-0.7867343176284255,15
25.214202367061176,-0.8045998464749942,15
25.22420403400567,-0.7595454099961766,15
25.23420570095016,-0.7531334273212739,15
25.24420736789465,-0.6805065190284316,15
25.25420903483914,-0.6233305364324985,15
25.264210701783632,-0.5534119195803148,15
25.274212368728122,-0.4567123419779495,15
25.284214035672612,-0.3826543565507424,15
25.294215702617105,-0.2578591780058811,15
25.304217369561595,-0.15321770700111667,15
25.314219036506085,-0.034549320765676385,15
25.324220703450575,0.08191655478278306,15
25.334222370395068,0.18290874049257447,15
25.344224037339558,0.3140818843443765,15
25.354225704284048,0.4075181714050405,15
25.364227371228537,0.5007637454522053,15
25.37422903817303,0.5799873874921745,15
25.38423070511752,0.667322330711431,15
25.39423237206201,0.7070630277988158,15
25.404234039006504,0.7558899454971746,15
25.414235705950993,0.7733911803943285,15
25.424237372895483,0.7826119376285792,15
25.434239039839973,0.7577946590249571,15
25.444240706784466,0.761133596899077,15
25.454242373728956,0.7364953066602119,15
25.464244040673446,0.674753963720629,15
25.474245707617936,0.6280191942412007,15
25.48424737456243,0.5824576383526308,15
25.49424904150692,0.5150604843069313,15
25.50425070845141,0.44333224591727644,15
25.514252375395902,0.3912586793450388,15
25.52425404234039,0.30267140557395955,15
25.53425570928488,0.24532706343017607,15
25.54425737622937,0.19677931845205632,15
25.554259043173865,0.16387080079196173,15
25.564260710118354,0.11965176750889095,15
25.574262377062844,0.08363280983414996,15
25.584264044007334,0.03766980311333382,15
25.594265710951827,0.035875696606251034,15
25.604267377896317,0.017378241134344122,15
25.614269044840807,-0.002993752388248847,15
25.6242707117853,0.002132689591159023,15
25.63427237872979,0.019201735517117444,15
25.64427404567428,-0.007317990828500033,15
25.65427571261877,0.00337596871035575,15
25.664277379563263,-0.015803316009751038,15
25.674279046507753,-0.006859442797862129,15
25.684280713452242,-0.0133560111521152,15
25.694282380396732,-0.03637065889921572,15
25.704284047341226,-0.04367832480780097,15
25.714285714285715,-0.09776530544755503,15
25.724287381230205,-0.12110036604162386,15
25.7342890481747,-0.17453926610898662,15
25.744290715119188,-0.2495577341215035,15
25.754292382063678,-0.2772562550603881,15
25.764294049008168,-0.35358093395300244,15
25.77429571595266,-0.43131253429730404,15
25.78429738289715,-0.48087259020640627,15
25.79429904984164,-0.5162160200505642,15
25.80430071678613,-0.5969448745847545,15
25.814302383730624,-0.6413624190304732,15
25.824304050675114,-0.7134057600595999,15
25.834305717619603,-0.7290887880698802,15
25.844307384564097,-0.7739320624673539,15
25.854309051508586,-0.7657554314920367,15
25.864310718453076,-0.790393981946751,15
25.874312385397566,-0.7687914882326352,15
25.88431405234206,-0.734920181053419,15
25.89431571928655,-0.6809614846863155,15
25.90431738623104,-0.6168138037132349,15
25.91431905317553,-0.5200365560652912,15
25.924320720120022,-0.4404187521496358,15
25.934322387064512,-0.35954830871086996,15
25.944324054009,-0.263350845600007,15
25.954325720953495,-0.13236295960312047,15
25.964327387897985,-0.021800117160535967,15
25.974329054842475,0.08474525138287423,15
25.984330721786964,0.20986156354982413,15
25.994332388731458,0.32318211379876716,15
26.004334055675947,0.4136134905538351,15
26.014335722620437,0.5146192931648416,15
26.024337389564927,0.5984555735209871,15
26.03433905650942,0.6574466571047537,15
26.04434072345391,0.6951574008300144,15
26.0543423903984,0.7412340662507272,15
26.06434405734289,0.7803542746002172,15
26.074345724287383,0.7830276435418009,15
26.084347391231873,0.7655975765290581,15
26.094349058176363,0.7585768395096371,15
26.104350725120856,0.7329869969926603,15
26.114352392065346,0.6845897549043154,15
26.124354059009836,0.6301471376076389,15
26.134355725954325,0.5868079417396824,15
26.14435739289882,0.5031654702182731,15
26.15435905984331,0.4380643518069961,15
26.1643607267878,0.36984490737147974,15
26.174362393732288,0.3082152262670489,15
26.18436406067678,0.2622731030805062,15
26.19436572762127,0.18988677140698815,15
26.20436739456576,0.1280348487290598,15
26.214369061510254,0.1110971169222802,15
26.224370728454744,0.08679910376951051,15
26.234372395399234,0.05199013869302822,15
26.244374062343724,0.019803102784125334,15
26.254375729288217,0.0339813581026777,15
26.264377396232707,0.01170374771372604,15
26.274379063177197,0.01787416372855534,15
26.284380730121686,0.009191792243189362,15
26.29438239706618,0.011674225681313011,15
26.30438406401067,-0.00043988213337672346,15
26.31438573095516,-0.018897995261904638,15
26.324387397899653,-0.009830222648554595,15
26.334389064844142,-0.02039295300962309,15
26.344390731788632,-0.031246883251397375,15
26.354392398733122,-0.059465829722815465,15
26.364394065677615,-0.06789302112469003,15
26.374395732622105,-0.13379029887212662,15
26.384397399566595,-0.18095877310173517,15
26.394399066511085,-0.23090665752540307,15
26.404400733455578,-0.2857716942290323,15
26.414402400400068,-0.3626123151918174,15
26.424404067344557,-0.4281180828989535,15
26.43440573428905,-0.500463997299145,15
26.44440740123354,-0.5541349476814236,15
26.45440906817803,-0.6116018540360656,15
26.46441073512252,-0.6480818326323171,15
26.474412402067014,-0.7111415612835259,15
26.484414069011503,-0.729425347486777,15
26.494415735955993,-0.7710947968798919,15
26.504417402900483,-0.7877089807992831,15
26.514419069844976,-0.7639168796264724,15
26.524420736789466,-0.7588465429600831,15
26.534422403733956,-0.7308588692563996,15
26.54442407067845,-0.6829911007101951,15
26.55442573762294,-0.6280511181597707,15
26.56442740456743,-0.5298874159602304,15
26.57442907151192,-0.4422957624866274,15
26.584430738456412,-0.34339746833787754,15
26.5944324054009,-0.21505333098402182,15
26.60443407234539,-0.11466430144095939,15
26.61443573928988,-0.01875257164318191,15
26.624437406234374,0.098769559776679,15
26.634439073178864,0.24269164399235013,15
26.644440740123354,0.3337654551008163,15
26.654442407067847,0.4089976955507188,15
26.664444074012337,0.5174402222406439,15
26.674445740956827,0.5899494704214101,15
26.684447407901317,0.6587635689755638,15
26.69444907484581,0.7282529215047191,15
26.7044507417903,0.7720895027802268,15
26.71445240873479,0.7738502139071899,15
26.72445407567928,0.773167742581585,15
26.734455742623773,0.7580252922480797,15
26.744457409568263,0.7509087191234828,15
26.754459076512752,0.7057609408389921,15
26.764460743457242,0.6582644148411785,15
26.774462410401735,0.5994825216135937,15
26.784464077346225,0.5525968008904419,15
26.794465744290715,0.502599355436206,15
26.80446741123521,0.43600157083322416,15
26.814469078179698,0.3684589916437509,15
26.824470745124188,0.314991958007022,15
26.834472412068678,0.2350961099849739,15
26.84447407901317,0.2013804073556291,15
26.85447574595766,0.1562852808643171,15
26.86447741290215,0.09690996700711443,15
26.87447907984664,0.052450419024399314,15
26.884480746791134,0.049060612025361876,15
26.894482413735624,0.020797880278267226,15
26.904484080680113,0.01413508877475607,15
26.914485747624607,0.005365332012600523,15
26.924487414569096,-0.001634786199946477,15
26.934489081513586,-0.0077580763394140585,15
26.944490748458076,-0.0098288188813263,15
26.95449241540257,0.01145897271924533,15
26.96449408234706,-0.0020703481756299403,15
26.97449574929155,-0.028382553979378982,15
26.98449741623604,-0.03196986220814184,15
26.994499083180532,-0.04366535626950196,15
27.004500750125022,-0.04893529867136973,15
27.01450241706951,-0.11165283573532142,15
27.024504084014005,-0.11866312877115304,15
27.034505750958495,-0.19186113727194082,15
27.044507417902985,-0.2378366984270367,15
27.054509084847474,-0.2851186058681838,15
27.064510751791968,-0.35757855085731416,15
27.074512418736457,-0.43011046914551887,15
27.084514085680947,-0.4986068663089774,15
27.094515752625437,-0.5524633706354452,15
27.10451741956993,-0.6104898179947954,15
27.11451908651442,-0.67697707900786,15
27.12452075345891,-0.709900409828539,15
27.134522420403403,-0.7543666362865985,15
27.144524087347893,-0.7828651468069832,15
27.154525754292383,-0.7712592018581291,15
27.164527421236873,-0.7762839224894954,15
27.174529088181366,-0.7549064332309103,15
27.184530755125856,-0.7349520556572424,15
27.194532422070345,-0.6656261198248926,15
27.204534089014835,-0.6047147803264499,15
27.21453575595933,-0.5183531000447393,15
27.22453742290382,-0.4310573618349583,15
27.234539089848308,-0.33082470991439134,15
27.2445407567928,-0.21689021264120917,15
27.25454242373729,-0.13004081366325834,15
27.26454409068178,0.0023858525481821433,15
27.27454575762627,0.10159361464782594,15
27.284547424570764,0.23124535690077688,15
27.294549091515254,0.33891213675830434,15
27.304550758459744,0.4485266715460272,15
27.314552425404234,0.5203153844143951,15
27.324554092348727,0.5955091930072068,15
27.334555759293217,0.6475652721669304,15
27.344557426237706,0.7160548319024229,15
27.3545590931822,0.7522476692678464,15
27.36456076012669,0.7533126424765423,15
27.37456242707118,0.7668563150481852,15
27.38456409401567,0.7899943344123442,15
27.394565760960162,0.7339175896645537,15
27.404567427904652,0.7201013977127251,15
27.414569094849142,0.6835052694964985,15
27.424570761793632,0.6170350962085965,15
27.434572428738125,0.5453458423071643,15
27.444574095682615,0.4934846034753313,15
27.454575762627105,0.42676788729593274,15
27.464577429571595,0.357406031122429,15
27.474579096516088,0.29079582230424594,15
27.484580763460578,0.23657628173098325,15
27.494582430405067,0.18707011299510146,15
27.50458409734956,0.14356813252200956,15
27.51458576429405,0.10078734212999685,15
27.52458743123854,0.06616882223739601,15
27.53458909818303,0.03438635640763911,15
27.544590765127523,0.003669998729601595,15
27.554592432072013,0.01866091252492871,15
27.564594099016503,-0.0020809592842092736,15
27.574595765960993,-0.004522781157406909,15
27.584597432905486,0.0037914272030157847,15
27.594599099849976,0.00060964553945712,15
27.604600766794466,-0.008106606766708262,15
27.61460243373896,-0.035255755938820646,15
27.62460410068345,-0.007107613762966501,15
27.63460576762794,-0.020694910838533205,15
27.64460743457243,-0.024339226339876032,15
27.65460910151692,-0.060223661259711646,15
27.66461076846141,-0.10634857266878261,15
27.6746124354059,-0.14710962447691944,15
27.68461410235039,-0.194798126120623,15
27.694615769294884,-0.2648363964895183,15
27.704617436239374,-0.3031441376961431,15
27.714619103183864,-0.3483495094432657,15
27.724620770128357,-0.43866787854541056,15
27.734622437072847,-0.49093566022928004,15
27.744624104017337,-0.5527734506104041,15
27.754625770961827,-0.6156073943118798,15
27.76462743790632,-0.6671538884962681,15
27.77462910485081,-0.7172758058152942,15
27.7846307717953,-0.7402435181102861,15
27.79463243873979,-0.779280691306524,15
27.804634105684283,-0.7841836231153272,15
27.814635772628773,-0.7934675803185309,15
27.824637439573262,-0.7444042661610606,15
27.834639106517756,-0.7147572530907172,15
27.844640773462245,-0.6564344162609529,15
27.854642440406735,-0.6054364636597799,15
27.864644107351225,-0.495956901367808,15
27.87464577429572,-0.4291142862155846,15
27.884647441240208,-0.3179147563410714,15
27.894649108184698,-0.21743213068457026,15
27.904650775129188,-0.0987433554954382,15
27.91465244207368,0.011099976403795423,15
27.92465410901817,0.12535677067179338,15
27.93465577596266,0.22116920113535346,15
27.944657442907154,0.3412456066826324,15
27.954659109851644,0.43504131953567843,15
27.964660776796133,0.5383148893533701,15
27.974662443740623,0.6039987464391966,15
27.984664110685117,0.6694021939768012,15
27.994665777629606,0.7429721629100651,15
28.004667444574096,0.7567549069117494,15
28.014669111518586,0.7685739962263556,15
28.02467077846308,0.802821263258388,15
28.03467244540757,0.7637349683424852,15
28.04467411235206,0.74632695285609,15
28.054675779296552,0.6905728153660422,15
28.064677446241042,0.6496023272953939,15
28.07467911318553,0.601260789755078,15
28.08468078013002,0.5431177959287287,15
28.094682447074515,0.4896759394356895,15
28.104684114019005,0.41387159321066286,15
28.114685780963494,0.36810129874642267,15
28.124687447907984,0.30003503726380826,15
28.134689114852478,0.22876288456814073,15
28.144690781796967,0.16819406338826828,15
28.154692448741457,0.14635339372044362,15
28.164694115685947,0.08661388757248187,15
28.17469578263044,0.06889241019417089,15
28.18469744957493,0.053490524440966025,15
