time,ppg_signal,subject_id
0.0,-0.015288130492334183,20
0.010001666944490749,0.08293137143821008,20
0.020003333888981498,0.1892882524708765,20
0.030005000833472247,0.27829099877503405,20
0.040006667777962995,0.3476997442104076,20
0.050008334722453744,0.44412510996916255,20
0.06001000166694449,0.4992365669212303,20
0.07001166861143523,0.5792733295890153,20
0.08001333555592599,0.6372402566974691,20
0.09001500250041675,0.686719113142949,20
0.10001666944490749,0.726593826810859,20
0.11001833638939823,0.7678274540693221,20
0.12002000333388899,0.7856632727956534,20
0.13002167027837974,0.7807035181932827,20
0.14002333722287047,0.7581408252470354,20
0.15002500416736123,0.7650790120993368,20
0.16002667111185198,0.7467014335797562,20
0.17002833805634274,0.7159398921254994,20
0.1800300050008335,0.6836235266353923,20
0.19003167194532422,0.6466712659752859,20
0.20003333888981498,0.6079449377665614,20
0.21003500583430573,0.5582507091738621,20
0.22003667277879646,0.5018003082399844,20
0.23003833972328722,0.44422433860117483,20
0.24004000666777797,0.38874581869170777,20
0.2500416736122687,0.34334970409723076,20
0.2600433405567595,0.31463866885821173,20
0.2700450075012502,0.2660013035359037,20
0.28004667444574094,0.20736225873709385,20
0.2900483413902317,0.15437213215367487,20
0.30005000833472245,0.1229202226458938,20
0.31005167527921323,0.08904367666575008,20
0.32005334222370396,0.06789345594820431,20
0.3300550091681947,0.03896242383742755,20
0.3400566761126855,0.0410292768900461,20
0.3500583430571762,0.028278712879030516,20
0.360060010001667,0.014951436968719199,20
0.3700616769461577,0.018827722159787647,20
0.38006334389064844,-0.004336613272148194,20
0.3900650108351392,-0.009924646016679578,20
0.40006667777962995,0.007276538389174891,20
0.4100683447241207,-0.008672118227274515,20
0.42007001166861146,0.016952339928943766,20
0.4300716786131022,0.00431803911314752,20
0.4400733455575929,0.004980800468720273,20
0.4500750125020837,-0.02457761690232952,20
0.46007667944657443,-0.04151933757811948,20
0.4700783463910652,-0.05124897052928436,20
0.48008001333555594,-0.05905362019883509,20
0.49008168028004667,-0.09777103778007648,20
0.5000833472245374,-0.11466540107893121,20
0.5100850141690282,-0.15444898598876275,20
0.520086681113519,-0.19234831066822894,20
0.5300883480580096,-0.23013247395906675,20
0.5400900150025004,-0.29690836168455376,20
0.5500916819469912,-0.3370259027331038,20
0.5600933488914819,-0.3902661013516924,20
0.5700950158359727,-0.45141523474600825,20
0.5800966827804634,-0.4927412769189663,20
0.5900983497249542,-0.5473840401553511,20
0.6001000166694449,-0.6233393715035327,20
0.6101016836139357,-0.6459044673073533,20
0.6201033505584265,-0.6838920592372781,20
0.6301050175029171,-0.7063527219183193,20
0.6401066844474079,-0.7496277944761583,20
0.6501083513918987,-0.7581279923729639,20
0.6601100183363894,-0.7699067018009398,20
0.6701116852808802,-0.7887169515028529,20
0.680113352225371,-0.7672473432572807,20
0.6901150191698616,-0.7481599586565297,20
0.7001166861143524,-0.7108149432069266,20
0.7101183530588432,-0.7002607508459419,20
0.720120020003334,-0.6666581079441931,20
0.7301216869478246,-0.579137149920014,20
0.7401233538923154,-0.5120161984750029,20
0.7501250208368062,-0.4419349484539072,20
0.7601266877812969,-0.3810860729263708,20
0.7701283547257877,-0.29010594381524163,20
0.7801300216702785,-0.18019583017701,20
0.7901316886147691,-0.10401033273692888,20
0.8001333555592599,-0.004167100786531237,20
0.8101350225037507,0.09539665661544931,20
0.8201366894482414,0.1857999343597846,20
0.8301383563927321,0.2746313116585005,20
0.8401400233372229,0.3706761512795934,20
0.8501416902817136,0.4383206719553093,20
0.8601433572262044,0.5086459951885046,20
0.8701450241706952,0.5770302721978118,20
0.8801466911151858,0.6478142431553057,20
0.8901483580596766,0.6734162888695499,20
0.9001500250041674,0.7184831428166878,20
0.9101516919486582,0.7538377641939042,20
0.9201533588931489,0.7521080334217006,20
0.9301550258376396,0.7922817299421134,20
0.9401566927821304,0.7916295214097213,20
0.9501583597266211,0.7535745429026937,20
0.9601600266711119,0.7626752298519609,20
0.9701616936156027,0.7188011103016161,20
0.9801633605600933,0.6707977601552947,20
0.9901650275045841,0.6532831511646636,20
1.0001666944490748,0.586356665810918,20
1.0101683613935657,0.5418794864108434,20
1.0201700283380564,0.5067514111404757,20
1.030171695282547,0.4510358466833505,20
1.040173362227038,0.3932115141300678,20
1.0501750291715286,0.3461666949050005,20
1.0601766961160193,0.2999591019074092,20
1.0701783630605102,0.23716821750806158,20
1.0801800300050008,0.20460226237061113,20
1.0901816969494915,0.16665599792987898,20
1.1001833638939824,0.13387668067354183,20
1.110185030838473,0.08836140480754823,20
1.1201866977829638,0.0702801236411124,20
1.1301883647274547,0.06448651996244849,20
1.1401900316719453,0.03472463333061977,20
1.1501916986164362,0.002489055150847082,20
1.160193365560927,-0.004819299940888406,20
1.1701950325054176,-0.0017439709956793073,20
1.1801966994499085,0.005221553480309132,20
1.1901983663943991,-0.0011090719330160564,20
1.2002000333388898,0.0006949983188388238,20
1.2102017002833807,0.011004773961462775,20
1.2202033672278714,-0.004166366273876017,20
1.230205034172362,-0.006847690646001162,20
1.240206701116853,-0.013619711474368124,20
1.2502083680613436,-0.0401748345191877,20
1.2602100350058343,-0.0318097177763216,20
1.2702117019503252,-0.05136140619293922,20
1.2802133688948159,-0.08662454336438148,20
1.2902150358393065,-0.10748321768264332,20
1.3002167027837974,-0.11949292514478542,20
1.310218369728288,-0.14506255562090803,20
1.3202200366727788,-0.19796655371403796,20
1.3302217036172697,-0.24969026098286165,20
1.3402233705617603,-0.28806419498733554,20
1.350225037506251,-0.33408461007253826,20
1.360226704450742,-0.40706713175352843,20
1.3702283713952326,-0.4603271054855843,20
1.3802300383397232,-0.4887229946875603,20
1.3902317052842141,-0.5379211146036087,20
1.4002333722287048,-0.604146412082234,20
1.4102350391731955,-0.6361799280982784,20
1.4202367061176864,-0.6688185110867675,20
1.430238373062177,-0.7285369499594775,20
1.440240040006668,-0.7385318140868793,20
1.4502417069511586,-0.7764121900306051,20
1.4602433738956493,-0.7850143883438905,20
1.4702450408401402,-0.7800544252925543,20
1.4802467077846309,-0.7731728911626025,20
1.4902483747291215,-0.7493525707728592,20
1.5002500416736124,-0.7322170663953728,20
1.510251708618103,-0.6942131806123554,20
1.5202533755625938,-0.6482242252568287,20
1.5302550425070847,-0.585179095025445,20
1.5402567094515753,-0.529539227326043,20
1.550258376396066,-0.4372661328446568,20
1.560260043340557,-0.38463933642726966,20
1.5702617102850476,-0.27548089163091494,20
1.5802633772295382,-0.18337338756699245,20
1.5902650441740291,-0.09439563076975058,20
1.6002667111185198,-0.017397405772715743,20
1.6102683780630105,0.07699484315974359,20
1.6202700450075014,0.1834993778540188,20
1.630271711951992,0.2528415655156104,20
1.6402733788964827,0.35114669173861746,20
1.6502750458409736,0.4604251499958405,20
1.6602767127854643,0.506147830554624,20
1.670278379729955,0.566163989925255,20
1.6802800466744459,0.6429793340314744,20
1.6902817136189365,0.6616617846304109,20
1.7002833805634272,0.7377627938497414,20
1.710285047507918,0.7528270134474412,20
1.7202867144524088,0.782059822303735,20
1.7302883813968994,0.7704265367669998,20
1.7402900483413903,0.7804399566529114,20
1.750291715285881,0.7614561980120056,20
1.7602933822303717,0.7674799064056161,20
1.7702950491748626,0.7295818835304627,20
1.7802967161193533,0.6919766034981789,20
1.7902983830638441,0.6529785236603636,20
1.8003000500083348,0.5848830125833152,20
1.8103017169528255,0.564330678129934,20
1.8203033838973164,0.4953615300882943,20
1.830305050841807,0.4400460263535972,20
1.8403067177862977,0.3981342060092528,20
1.8503083847307886,0.33080775323378603,20
1.8603100516752793,0.29072112731919075,20
1.87031171861977,0.24212462339476534,20
1.8803133855642609,0.21063681089478284,20
1.8903150525087515,0.1785382954084335,20
1.9003167194532422,0.1278361690117925,20
1.910318386397733,0.10375868239215497,20
1.9203200533422238,0.0727994556611523,20
1.9303217202867144,0.051637790740148216,20
1.9403233872312053,0.042982893949297496,20
1.950325054175696,0.013858195600552431,20
1.9603267211201867,0.015615629526351904,20
1.9703283880646776,-0.01011318521122043,20
1.9803300550091683,0.006545161575913009,20
1.990331721953659,0.004646587647679729,20
2.0003333888981496,-0.0034214522708936363,20
2.0103350558426407,-0.02095103545246229,20
2.0203367227871314,0.006087198293534645,20
2.030338389731622,-9.31827583606831e-06,20
2.0403400566761127,-0.024778984059244353,20
2.0503417236206034,-0.007427838218825127,20
2.060343390565094,-0.03522242778824414,20
2.070345057509585,-0.04490344727534222,20
2.080346724454076,-0.05804393843507441,20
2.0903483913985665,-0.09582419296647061,20
2.100350058343057,-0.12175686614501939,20
2.110351725287548,-0.15448240381937414,20
2.1203533922320386,-0.1980035386865214,20
2.1303550591765297,-0.24716456259437508,20
2.1403567261210203,-0.28978355401807177,20
2.150358393065511,-0.33649769577269045,20
2.1603600600100017,-0.38473956399688053,20
2.1703617269544924,-0.468502603364379,20
2.180363393898983,-0.49350221911145686,20
2.190365060843474,-0.5602504360982445,20
2.200366727787965,-0.5879395233222757,20
2.2103683947324555,-0.6386552936292398,20
2.220370061676946,-0.6876451321188896,20
2.230371728621437,-0.7086322780272397,20
2.2403733955659275,-0.7656975056723165,20
2.2503750625104186,-0.7640443945580799,20
2.2603767294549093,-0.7755304006438132,20
2.2703783963994,-0.7762891287338991,20
2.2803800633438907,-0.7857762344802995,20
2.2903817302883813,-0.7487992012723149,20
2.3003833972328724,-0.7342147137179738,20
2.310385064177363,-0.6946920234185707,20
2.320386731121854,-0.6470477696166982,20
2.3303883980663445,-0.58093814163596,20
2.340390065010835,-0.5207436906511117,20
2.350391731955326,-0.44590392168120574,20
2.360393398899817,-0.3783776462622426,20
2.3703950658443076,-0.2823423030478627,20
2.3803967327887983,-0.19831360966555303,20
2.390398399733289,-0.09123991805071552,20
2.4004000666777796,-0.007767229944927578,20
2.4104017336222703,0.08798378602553715,20
2.4204034005667614,0.1688140689917792,20
2.430405067511252,0.2741531470948805,20
2.4404067344557427,0.3632552154449239,20
2.4504084014002334,0.42839282443051874,20
2.460410068344724,0.52182872390424,20
2.4704117352892148,0.576180900979084,20
2.480413402233706,0.645067012930265,20
2.4904150691781965,0.675034742804256,20
2.5004167361226872,0.7043310903123811,20
2.510418403067178,0.7584206299815549,20
2.5204200700116686,0.7538821007180274,20
2.5304217369561592,0.7844856292888313,20
2.5404234039006504,0.779537756185321,20
2.550425070845141,0.7600377064447836,20
2.5604267377896317,0.741405293671276,20
2.5704284047341224,0.7201406796094033,20
2.580430071678613,0.694220944800806,20
2.590431738623104,0.6640460446118982,20
2.600433405567595,0.5937701582559474,20
2.6104350725120855,0.5588126184043951,20
2.620436739456576,0.5111855068038978,20
2.630438406401067,0.4374228498720688,20
2.6404400733455575,0.3975910953472035,20
2.6504417402900486,0.34745622920862723,20
2.6604434072345393,0.2997050597674774,20
2.67044507417903,0.24678941650878378,20
2.6804467411235207,0.2019867559967283,20
2.6904484080680113,0.15953728590268093,20
2.700450075012502,0.13295818301805817,20
2.710451741956993,0.11603194820827778,20
2.720453408901484,0.06691667377865806,20
2.7304550758459745,0.06486985490900557,20
2.740456742790465,0.02468852028302468,20
2.750458409734956,0.00346773164124407,20
2.7604600766794465,0.016969096495046604,20
2.7704617436239376,-0.007918680666205661,20
2.7804634105684283,-0.0011304415904912508,20
2.790465077512919,0.016687944925383693,20
2.8004667444574096,0.002177759708406387,20
2.8104684114019003,-0.011497169659155213,20
2.820470078346391,-0.0076288563790618035,20
2.830471745290882,0.005776843832542483,20
2.8404734122353728,0.0030434194792022477,20
2.8504750791798634,-0.03190192392362072,20
2.860476746124354,-0.0199719026660525,20
2.8704784130688448,-0.068074361777869,20
2.880480080013336,-0.06384876919727309,20
2.8904817469578266,-0.07490666433674328,20
2.9004834139023172,-0.12662755888493693,20
2.910485080846808,-0.1487444305313465,20
2.9204867477912986,-0.17642504615414673,20
2.9304884147357892,-0.23268473791032848,20
2.9404900816802804,-0.2742595466955411,20
2.950491748624771,-0.32632998765559146,20
2.9604934155692617,-0.39346168348124055,20
2.9704950825137524,-0.443632627930251,20
2.980496749458243,-0.4803191854157285,20
2.9904984164027337,-0.5467880882569721,20
3.000500083347225,-0.5835611720941798,20
3.0105017502917155,-0.6477275995011855,20
3.020503417236206,-0.6789043040097449,20
3.030505084180697,-0.7196604968834371,20
3.0405067511251875,-0.7455352045816124,20
3.050508418069678,-0.7482116874067728,20
3.0605100850141693,-0.7900249208218451,20
3.07051175195866,-0.7965547995789707,20
3.0805134189031507,-0.7732209200241089,20
3.0905150858476413,-0.749433444156851,20
3.100516752792132,-0.7208747390596021,20
3.1105184197366227,-0.6832356288454755,20
3.120520086681114,-0.6491818731735718,20
3.1305217536256045,-0.6025685973365144,20
3.140523420570095,-0.5265157528593213,20
3.150525087514586,-0.4529784827148661,20
3.1605267544590765,-0.3596942090533614,20
3.170528421403567,-0.2887534633604775,20
3.1805300883480583,-0.19339995986441658,20
3.190531755292549,-0.09733100070151379,20
3.2005334222370396,0.009159392318267675,20
3.2105350891815303,0.08500027020030336,20
3.220536756126021,0.1693231608334975,20
3.230538423070512,0.26114569218748057,20
3.2405400900150028,0.35252995449172486,20
3.2505417569594934,0.43493260966805464,20
3.260543423903984,0.5039258920391324,20
3.270545090848475,0.5643994662634354,20
3.2805467577929655,0.604354931826088,20
3.2905484247374566,0.6785139396400046,20
3.3005500916819472,0.7258329190051278,20
3.310551758626438,0.7483611375107877,20
3.3205534255709286,0.7726879271249918,20
3.3305550925154193,0.7904703936646362,20
3.34055675945991,0.7858243226989889,20
3.350558426404401,0.7555737063284295,20
3.3605600933488917,0.7273626442377288,20
3.3705617602933824,0.729155353100926,20
3.380563427237873,0.6933773895595947,20
3.3905650941823637,0.6609377694481954,20
3.4005667611268544,0.6319467285340805,20
3.4105684280713455,0.5594505480389785,20
3.420570095015836,0.517759995879637,20
3.430571761960327,0.4662583560845265,20
3.4405734289048175,0.4077536688427639,20
3.450575095849308,0.35927953705418153,20
3.460576762793799,0.30697663945437687,20
3.47057842973829,0.2531890322199706,20
3.4805800966827807,0.19309373966767635,20
3.4905817636272714,0.17124127789332075,20
3.500583430571762,0.12986917743919849,20
3.5105850975162527,0.09597791413898735,20
3.5205867644607434,0.08233730936276598,20
3.5305884314052345,0.0776860374990485,20
3.540590098349725,0.03651993021777621,20
3.550591765294216,0.02198377799668673,20
3.5605934322387065,-0.009981353851593228,20
3.570595099183197,0.007937244371717174,20
3.5805967661276883,0.004595200276564381,20
3.590598433072179,-0.004677792171303517,20
3.6006001000166696,0.020163892043329294,20
3.6106017669611603,-0.0040891764215575275,20
3.620603433905651,0.015164712640573882,20
3.6306051008501417,-0.01200149259386277,20
3.6406067677946328,0.0048350594326499585,20
3.6506084347391234,-0.02019283141477767,20
3.660610101683614,-0.030448531005372446,20
3.670611768628105,-0.04084980915133532,20
3.6806134355725955,-0.07179367431863382,20
3.690615102517086,-0.08233594609956979,20
3.7006167694615772,-0.13173003589130114,20
3.710618436406068,-0.16379051879809756,20
3.7206201033505586,-0.19904369068475988,20
3.7306217702950493,-0.23230602480120235,20
3.74062343723954,-0.2783551044742174,20
3.7506251041840306,-0.3390364527672189,20
3.7606267711285217,-0.3782265839136363,20
3.7706284380730124,-0.4465260856085979,20
3.780630105017503,-0.5075970762537101,20
3.7906317719619937,-0.56166205591045,20
3.8006334389064844,-0.591616675080789,20
3.810635105850975,-0.6530899185204231,20
3.820636772795466,-0.691045213341724,20
3.830638439739957,-0.7240820401003336,20
3.8406401066844476,-0.7607804850804999,20
3.8506417736289382,-0.7505738511352869,20
3.860643440573429,-0.7705583043270605,20
3.87064510751792,-0.7691944134535398,20
3.8806467744624107,-0.7609855404285095,20
3.8906484414069014,-0.7506628623787552,20
3.900650108351392,-0.7229554590803603,20
3.9106517752958827,-0.6847683386189457,20
3.9206534422403734,-0.643014992078239,20
3.9306551091848645,-0.5923646797469606,20
3.940656776129355,-0.5255033011388157,20
3.950658443073846,-0.4408043598141547,20
3.9606601100183365,-0.38299951768591484,20
3.970661776962827,-0.2931341513157092,20
3.980663443907318,-0.19791124408239363,20
3.990665110851809,-0.11915213758351284,20
4.000666777796299,-0.026358319444713417,20
4.01066844474079,0.07370741434082874,20
4.020670111685281,0.1624113199319041,20
4.030671778629772,0.258379899794882,20
4.040673445574263,0.355812230143129,20
4.0506751125187535,0.44100612818564433,20
4.060676779463244,0.500367775406825,20
4.070678446407735,0.5559438748045146,20
4.0806801133522255,0.6421926847030933,20
4.090681780296716,0.6781101763280473,20
4.100683447241207,0.7231528059626268,20
4.1106851141856975,0.7509596379498484,20
4.120686781130188,0.7547247629986051,20
4.130688448074679,0.7685116413827275,20
4.14069011501917,0.7776244356420221,20
4.150691781963661,0.7724848038187218,20
4.160693448908152,0.7394178883524117,20
4.170695115852642,0.732367707972517,20
4.180696782797133,0.6821428211570425,20
4.190698449741624,0.6407133994318023,20
4.200700116686114,0.6038258125472554,20
4.210701783630605,0.5452943670735075,20
4.220703450575096,0.5156512405877614,20
4.2307051175195864,0.4546138372382432,20
4.240706784464077,0.3919810215370216,20
4.250708451408569,0.3506656414446042,20
4.260710118353059,0.3026927273127878,20
4.27071178529755,0.25826714599298944,20
4.280713452242041,0.21836317013153445,20
4.290715119186531,0.1583436191537204,20
4.300716786131022,0.12894447782359883,20
4.310718453075513,0.08393502533488892,20
4.320720120020003,0.07790483659484311,20
4.330721786964494,0.07172085766304649,20
4.340723453908985,0.03853258660963511,20
4.350725120853475,0.008266363430002949,20
4.360726787797966,0.012310513790356515,20
4.370728454742458,0.00101552330612412,20
4.380730121686948,0.012523895270137603,20
4.390731788631439,-0.0057156298980582335,20
4.40073345557593,0.0062462591719196475,20
4.41073512252042,0.003008740865845952,20
4.420736789464911,-0.002718991642091422,20
4.430738456409402,0.003335068464413806,20
4.440740123353892,-0.008529802087036662,20
4.450741790298383,0.0018014277358360878,20
4.460743457242874,-0.027841519234744174,20
4.470745124187364,-0.030002002388257468,20
4.480746791131855,-0.07674742999520011,20
4.490748458076347,-0.08215866117339349,20
4.500750125020837,-0.11716796221134222,20
4.510751791965328,-0.15367754013238022,20
4.520753458909819,-0.1978766243083602,20
4.530755125854309,-0.2355068732737423,20
4.5407567927988,-0.286238931873338,20
4.550758459743291,-0.33463467529931795,20
4.560760126687781,-0.3792728585665487,20
4.570761793632272,-0.441425852918941,20
4.580763460576763,-0.4850141398464066,20
4.590765127521253,-0.5418260909748445,20
4.600766794465745,-0.6008550249798088,20
4.6107684614102356,-0.6373197927810773,20
4.620770128354726,-0.6677006419654089,20
4.630771795299217,-0.7141727525920311,20
4.640773462243708,-0.7281014386163817,20
4.650775129188198,-0.7657452762893799,20
4.660776796132689,-0.7831095486069578,20
4.67077846307718,-0.7745910095264139,20
4.68078013002167,-0.7663370278688529,20
4.690781796966161,-0.7644777755452079,20
4.700783463910652,-0.7414665991998555,20
4.710785130855142,-0.6987660081837384,20
4.720786797799634,-0.6596393777493257,20
4.7307884647441245,-0.5904993636268381,20
4.740790131688615,-0.5263728087425947,20
4.750791798633106,-0.44933025868924764,20
4.7607934655775965,-0.38128919517585147,20
4.770795132522087,-0.3013929578756294,20
4.780796799466578,-0.20695659843443634,20
4.7907984664110685,-0.11159093954665221,20
4.800800133355559,-0.016630212067269296,20
4.81080180030005,0.07644416488650832,20
4.820803467244541,0.1787771282366304,20
4.830805134189032,0.25334830787568663,20
4.840806801133523,0.3450537367545757,20
4.8508084680780135,0.4268266833424941,20
4.860810135022504,0.511999644847528,20
4.870811801966995,0.5863183783646336,20
4.8808134689114855,0.6390022027223855,20
4.890815135855976,0.6817213429835762,20
4.900816802800467,0.7238946527863771,20
4.9108184697449575,0.7437508910569692,20
4.920820136689448,0.7704369116386162,20
4.930821803633939,0.782062817547005,20
4.9408234705784295,0.7465227415305703,20
4.950825137522921,0.7649584976886366,20
4.960826804467412,0.7585356863772802,20
4.970828471411902,0.7321736378470972,20
4.980830138356393,0.6886626401832018,20
4.990831805300884,0.6678225286256264,20
5.0008334722453744,0.6123795183753432,20
5.010835139189865,0.5626581164457594,20
5.020836806134356,0.49630537555871396,20
5.0308384730788465,0.4503337736994454,20
5.040840140023337,0.4102040150053491,20
5.050841806967828,0.33081496821870915,20
5.0608434739123185,0.2991640947450494,20
5.07084514085681,0.2644173884025153,20
5.080846807801301,0.22216684564146222,20
5.090848474745791,0.16293162347197718,20
5.100850141690282,0.13632456722890385,20
5.110851808634773,0.10436927123826485,20
5.120853475579263,0.0850923589124051,20
5.130855142523754,0.054801277202476566,20
5.140856809468245,0.05104368608842823,20
5.150858476412735,0.020356287247559262,20
5.160860143357226,0.008943360128597417,20
5.170861810301717,-0.009622564183593802,20
5.180863477246208,0.009483172007180726,20
5.190865144190699,-0.007436688439834873,20
5.20086681113519,-0.002685832677498413,20
5.21086847807968,-0.0013204981933817841,20
5.220870145024171,-0.005189014160841046,20
5.230871811968662,-0.0006989791868727965,20
5.240873478913152,-0.003913309995984826,20
5.250875145857643,-0.00863557426737719,20
5.260876812802134,-0.03635620555259662,20
5.270878479746624,-0.05498520266315658,20
5.280880146691115,-0.06423925759838056,20
5.290881813635606,-0.09113009325078644,20
5.300883480580097,-0.12205784939030778,20
5.310885147524588,-0.1453220736053612,20
5.320886814469079,-0.2041972775919562,20
5.330888481413569,-0.217870095985804,20
5.34089014835806,-0.2856630015692275,20
5.350891815302551,-0.3372557377055268,20
5.360893482247041,-0.4084384873157759,20
5.370895149191532,-0.441746759332213,20
5.380896816136023,-0.48945960476256756,20
5.390898483080513,-0.5252145568192166,20
5.400900150025004,-0.5884552089449847,20
5.410901816969495,-0.646132036694193,20
5.420903483913986,-0.6604084665065275,20
5.430905150858477,-0.7086721552076037,20
5.440906817802968,-0.7476936943847212,20
5.450908484747458,-0.7619430381875857,20
5.460910151691949,-0.7673332386111734,20
5.47091181863644,-0.7823614546136501,20
5.48091348558093,-0.7850042664814751,20
5.490915152525421,-0.7510569813930411,20
5.500916819469912,-0.7455314762580016,20
5.510918486414402,-0.6975577537742712,20
5.520920153358893,-0.6396498986575103,20
5.5309218203033845,-0.5998431990817,20
5.540923487247875,-0.5200783373710666,20
5.550925154192366,-0.4496666067525109,20
5.5609268211368565,-0.3713702788489576,20
5.570928488081347,-0.28823326609785527,20
5.580930155025838,-0.2162354610778122,20
5.590931821970329,-0.13002937369334985,20
5.600933488914819,-0.01756217451919671,20
5.61093515585931,0.06631684485917339,20
5.620936822803801,0.1570377938217073,20
5.630938489748291,0.25325099647175076,20
5.640940156692782,0.32855497324138966,20
5.6509418236372735,0.4057817420377931,20
5.660943490581764,0.5029055463323847,20
5.670945157526255,0.5661850746331445,20
5.6809468244707455,0.6206486662589487,20
5.690948491415236,0.6804146955284092,20
5.700950158359727,0.7300306295563844,20
5.7109518253042175,0.7336327889606922,20
5.720953492248708,0.7793458456368116,20
5.730955159193199,0.7787877558103419,20
5.7409568261376895,0.7755114799299491,20
5.75095849308218,0.7647105337271287,20
5.760960160026672,0.7638674988695374,20
5.7709618269711624,0.7272513247458577,20
5.780963493915653,0.6957066518151345,20
5.790965160860144,0.6402947912923893,20
5.8009668278046345,0.6043800190765322,20
5.810968494749125,0.5549874846021078,20
5.820970161693616,0.5093677258253105,20
5.8309718286381065,0.4704339636280998,20
5.840973495582597,0.40195968231027007,20
5.850975162527088,0.35788527862135244,20
5.8609768294715785,0.309965002538315,20
5.870978496416069,0.2729599139486362,20
5.880980163360561,0.21151936504228055,20
5.890981830305051,0.16864327560408512,20
5.900983497249542,0.13949036678424737,20
5.910985164194033,0.10529089913438763,20
5.920986831138523,0.07351577271121877,20
5.930988498083014,0.06616314375370315,20
5.940990165027505,0.03844781399899814,20
5.950991831971995,0.015360855022687692,20
5.960993498916486,0.014160015876602951,20
5.970995165860977,0.00457067629117157,20
5.9809968328054675,0.015665692138759048,20
5.990998499749958,0.010442203274868936,20
6.00100016669445,0.011339594210994501,20
6.01100183363894,-0.012549246042792062,20
6.021003500583431,0.0183871252877974,20
6.031005167527922,-0.015865331936108312,20
6.041006834472412,-0.0008840630711880139,20
6.051008501416903,-0.0017836429200882367,20
6.061010168361394,-0.012182264990579117,20
6.071011835305884,-0.059667740290089394,20
6.081013502250375,-0.05833362409030306,20
6.091015169194866,-0.08710484003807642,20
6.101016836139356,-0.1173524816277297,20
6.111018503083848,-0.1651089121712783,20
6.121020170028339,-0.17995458264477815,20
6.131021836972829,-0.22784901342091796,20
6.14102350391732,-0.28098662409342323,20
6.151025170861811,-0.3351237003076551,20
6.161026837806301,-0.36793158291052974,20
6.171028504750792,-0.42572858547512993,20
6.181030171695283,-0.47651924468698204,20
6.191031838639773,-0.5285981260693959,20
6.201033505584264,-0.5834686149956521,20
6.211035172528755,-0.6395809361675613,20
6.221036839473245,-0.6730489152551845,20
6.231038506417737,-0.7204398895212463,20
6.241040173362228,-0.7144676709063985,20
6.251041840306718,-0.7608589244630375,20
6.261043507251209,-0.772608918787682,20
6.2710451741957,-0.7859870119931911,20
6.28104684114019,-0.7719805792566902,20
6.291048508084681,-0.7567804474597675,20
6.301050175029172,-0.7223917532421654,20
6.311051841973662,-0.7033223928938496,20
6.321053508918153,-0.6399182498039402,20
6.331055175862644,-0.5920477046439873,20
6.341056842807134,-0.5327955022343644,20
6.351058509751626,-0.449485802216624,20
6.361060176696117,-0.38249627293649385,20
6.371061843640607,-0.30197344293422446,20
6.381063510585098,-0.21025906703390101,20
6.391065177529589,-0.13112295946413108,20
6.401066844474079,-0.02205686929580709,20
6.41106851141857,0.07184587191199508,20
6.421070178363061,0.17391779726195997,20
6.431071845307551,0.2571236296458797,20
6.441073512252042,0.32296088007884627,20
6.451075179196533,0.42508856452498844,20
6.461076846141024,0.48124448903893424,20
6.471078513085515,0.5658240848225782,20
6.4810801800300055,0.6226519444525312,20
6.491081846974496,0.659008660375039,20
6.501083513918987,0.7286251507138525,20
6.5110851808634775,0.7600063335098605,20
6.521086847807968,0.7660558073204655,20
6.531088514752459,0.7715095533487804,20
6.54109018169695,0.7804389892366834,20
6.55109184864144,0.7534937039702996,20
6.561093515585931,0.7428535860692261,20
6.571095182530422,0.7282964677736612,20
6.581096849474913,0.7024685570247587,20
6.591098516419404,0.6509512373540111,20
6.6011001833638945,0.6156423464546898,20
6.611101850308385,0.5687957955466584,20
6.621103517252876,0.5097544480514963,20
6.6311051841973665,0.4612630609674014,20
6.641106851141857,0.4150082546876304,20
6.651108518086348,0.35988295756900535,20
6.6611101850308385,0.3095354177955329,20
6.671111851975329,0.26122180465886896,20
6.68111351891982,0.20577419395746813,20
6.6911151858643105,0.16237165155540015,20
6.701116852808802,0.1321311510561633,20
6.711118519753293,0.09754570955485227,20
6.721120186697783,0.08577961189784464,20
6.731121853642274,0.0555948359387158,20
6.741123520586765,0.019949802000507357,20
6.7511251875312555,0.02046424520175276,20
6.761126854475746,0.00513781124798404,20
6.771128521420237,0.005320946998586339,20
6.7811301883647275,0.007144375510605116,20
6.791131855309218,0.013066060050089498,20
6.801133522253709,0.0018663259842462824,20
6.8111351891982,-0.0190654163271077,20
6.821136856142691,-0.0044554659538023865,20
6.831138523087182,0.011350361573146764,20
6.841140190031672,-0.004777601364668716,20
6.851141856976163,-0.017029497526256706,20
6.861143523920654,-0.01368812854845492,20
6.871145190865144,-0.03632773857183367,20
6.881146857809635,-0.055763225652190045,20
6.891148524754126,-0.09292414985096555,20
6.901150191698616,-0.11469233650772455,20
6.911151858643107,-0.15832753010232783,20
6.921153525587598,-0.16657454048546866,20
6.931155192532089,-0.21587048342768544,20
6.94115685947658,-0.2730760552231926,20
6.951158526421071,-0.3436930439770423,20
6.961160193365561,-0.3667974595914885,20
6.971161860310052,-0.4330587300105325,20
6.981163527254543,-0.49426803422937565,20
6.991165194199033,-0.5195155988477637,20
7.001166861143524,-0.5678335397265822,20
7.011168528088015,-0.6348815185903027,20
7.021170195032505,-0.7018310495383763,20
7.031171861976996,-0.7116826809439003,20
7.041173528921487,-0.736630569772112,20
7.051175195865978,-0.7654557239486944,20
7.061176862810469,-0.7886358518881512,20
7.07117852975496,-0.7853861574561187,20
7.08118019669945,-0.7623729369865032,20
7.091181863643941,-0.7570219578365139,20
7.101183530588432,-0.7467398053814869,20
7.111185197532922,-0.6915884780139773,20
7.121186864477413,-0.6727117522694857,20
7.131188531421904,-0.5936880338975189,20
7.141190198366394,-0.5265937520240024,20
7.151191865310885,-0.4775204848862253,20
7.161193532255377,-0.3812958266419486,20
7.171195199199867,-0.2891661578235853,20
7.181196866144358,-0.21819862225351083,20
7.191198533088849,-0.12533504722208785,20
7.201200200033339,-0.02914720765593174,20
7.21120186697783,0.060284992440162874,20
7.221203533922321,0.15376633361208017,20
7.231205200866811,0.2555277466688402,20
7.241206867811302,0.34349532878096206,20
7.251208534755793,0.4008214584020693,20
7.261210201700283,0.49252251896793753,20
7.271211868644774,0.5946755974271182,20
7.2812135355892655,0.6263191312212006,20
7.291215202533756,0.6637375908478219,20
7.301216869478247,0.710369065967015,20
7.311218536422738,0.7567733497238547,20
7.321220203367228,0.7689195673409996,20
7.331221870311719,0.7769030302115292,20
7.34122353725621,0.7825189428761946,20
7.3512252042007,0.7555166195427895,20
7.361226871145191,0.7600859365384265,20
7.371228538089682,0.7322473827416818,20
7.381230205034172,0.7023342399499349,20
7.391231871978664,0.6486879398329115,20
7.4012335389231545,0.6102585937733169,20
7.411235205867645,0.56684339398519,20
7.421236872812136,0.5190146258444285,20
7.4312385397566265,0.4684946462855642,20
7.441240206701117,0.41639924619556556,20
7.451241873645608,0.3671131777411287,20
7.4612435405900985,0.30658576515090974,20
7.471245207534589,0.27941860008905545,20
7.48124687447908,0.19784482372224793,20
7.4912485414235706,0.1811922793407615,20
7.501250208368061,0.1374450230720562,20
7.511251875312553,0.10792743925209691,20
7.5212535422570435,0.08260619832374606,20
7.531255209201534,0.06943351558465688,20
7.541256876146025,0.04055568075724715,20
7.5512585430905155,0.020420379185139365,20
7.561260210035006,0.017384466731529685,20
7.571261876979497,0.011421133293586423,20
7.5812635439239875,0.02810341288450291,20
7.591265210868478,-0.0034643037236023718,20
7.601266877812969,0.009199136043335825,20
7.6112685447574595,-0.00902059773952425,20
7.62127021170195,0.009857802237150841,20
7.631271878646442,0.00887969134271706,20
7.641273545590932,-0.005468704231148252,20
7.651275212535423,-0.005932626399713566,20
7.661276879479914,-0.005689736421133726,20
7.671278546424404,-0.02173045756750489,20
7.681280213368895,-0.06083049711918966,20
7.691281880313386,-0.07274987336487776,20
7.7012835472578764,-0.1281054199089076,20
7.711285214202367,-0.15653121699780972,20
7.721286881146858,-0.1807034399013482,20
7.7312885480913485,-0.24919116252197304,20
7.74129021503584,-0.2762360022632019,20
7.751291881980331,-0.32149418461337764,20
7.761293548924821,-0.36558359522613565,20
7.771295215869312,-0.428427585103803,20
7.781296882813803,-0.48322777415496515,20
7.791298549758293,-0.5416816794281182,20
7.801300216702784,-0.6025436339637472,20
7.811301883647275,-0.6131574691524488,20
7.821303550591765,-0.691226189819718,20
7.831305217536256,-0.7192007778238664,20
7.841306884480747,-0.7417671719533172,20
7.851308551425237,-0.7643193956356973,20
7.861310218369729,-0.7925018716500939,20
7.87131188531422,-0.78072647964889,20
7.88131355225871,-0.7757065698808137,20
7.891315219203201,-0.7571602079009851,20
7.901316886147692,-0.7337682629276533,20
7.911318553092182,-0.6965037835099882,20
7.921320220036673,-0.6526431849142481,20
7.931321886981164,-0.606387232283634,20
7.941323553925654,-0.5404140494593682,20
7.951325220870145,-0.4715456779220013,20
7.961326887814636,-0.3933752488917767,20
7.971328554759126,-0.31177308446973434,20
7.981330221703618,-0.2151855042122332,20
7.991331888648109,-0.12917787642890247,20
8.001333555592598,-0.036827641336666106,20
8.01133522253709,0.05305780754641689,20
8.02133688948158,0.1623480064162551,20
8.031338556426071,0.2432052746699993,20
8.041340223370563,0.32289824408984225,20
8.051341890315053,0.42414899007142326,20
8.061343557259544,0.4837679593080952,20
8.071345224204034,0.5708214006637679,20
8.081346891148526,0.6055359714641849,20
8.091348558093015,0.6658655386566703,20
8.101350225037507,0.7033315231246651,20
8.111351891981997,0.7349834173550683,20
8.121353558926488,0.7547307499102005,20
8.131355225870978,0.7725803138045082,20
8.14135689281547,0.8038233720463499,20
8.151358559759961,0.7757936848771417,20
8.161360226704451,0.7474257199499182,20
8.171361893648942,0.7321007323298889,20
8.181363560593432,0.696290367944789,20
8.191365227537924,0.6528102128140522,20
8.201366894482414,0.6295360624745379,20
8.211368561426905,0.5662730306309544,20
8.221370228371395,0.5019517834081031,20
8.231371895315887,0.48584931516130203,20
8.241373562260376,0.4241619780735437,20
8.251375229204868,0.37457318980925,20
8.261376896149358,0.3188762506883633,20
8.27137856309385,0.27770845961589263,20
8.28138023003834,0.2195083303779496,20
8.29138189698283,0.16312121943260097,20
8.301383563927322,0.1316012106962175,20
8.311385230871812,0.10184309539131105,20
8.321386897816303,0.08982236448682152,20
8.331388564760793,0.06437185840085644,20
8.341390231705285,0.04853231179960304,20
8.351391898649775,0.02323138492759271,20
8.361393565594266,0.0023216521729777662,20
8.371395232538756,0.0135620618102279,20
8.381396899483248,0.004213964843216348,20
8.391398566427739,0.002819812219916066,20
8.401400233372229,0.002456572129446151,20
8.41140190031672,0.001867764802026775,20
8.42140356726121,-0.0024731264780685396,20
8.431405234205702,0.006999006555976678,20
8.441406901150192,0.009470914544338953,20
8.451408568094683,-0.012165647858079207,20
8.461410235039173,-0.038247609040901374,20
8.471411901983664,-0.04329407168720015,20
8.481413568928154,-0.03900419460037291,20
8.491415235872646,-0.09945589484559984,20
8.501416902817137,-0.10499044058158959,20
8.511418569761627,-0.13856279068174035,20
8.521420236706119,-0.1781456398675909,20
8.531421903650608,-0.22689340864422744,20
8.5414235705951,-0.27705499175023357,20
8.55142523753959,-0.3098548860929304,20
8.561426904484081,-0.37493173668331603,20
8.571428571428571,-0.44148268968922966,20
8.581430238373063,-0.485146948285166,20
8.591431905317553,-0.5469616273529352,20
8.601433572262044,-0.5730116118512976,20
8.611435239206534,-0.62491540555709,20
8.621436906151025,-0.6625878609795457,20
8.631438573095517,-0.7115709900259855,20
8.641440240040007,-0.7245307836426076,20
8.651441906984498,-0.7538615233795107,20
8.661443573928988,-0.779120245751159,20
8.67144524087348,-0.7837466458878475,20
8.68144690781797,-0.7721735769833616,20
8.691448574762461,-0.7741822718114318,20
8.70145024170695,-0.7289235476457352,20
8.711451908651442,-0.6946478178795643,20
8.721453575595932,-0.6460851812362463,20
8.731455242540424,-0.5996425295593261,20
8.741456909484915,-0.548810516890224,20
8.751458576429405,-0.48293899986738337,20
8.761460243373897,-0.3988052391348284,20
8.771461910318386,-0.30133248585026745,20
8.781463577262878,-0.22221473224580052,20
8.791465244207368,-0.12214539392643058,20
8.80146691115186,-0.019746672466104596,20
8.811468578096349,0.044910133870845234,20
8.82147024504084,0.16560925408727545,20
8.83147191198533,0.24112178575729873,20
8.841473578929822,0.3131435206178606,20
8.851475245874314,0.41917989033173164,20
8.861476912818803,0.49649937663919713,20
8.871478579763295,0.5602006598855,20
8.881480246707785,0.6317310967972569,20
8.891481913652276,0.671266768795065,20
8.901483580596766,0.710015618622536,20
8.911485247541258,0.7375676613087292,20
8.921486914485747,0.7614282290888632,20
8.931488581430239,0.7950321351576058,20
8.941490248374729,0.7925361953704729,20
8.95149191531922,0.7667262545295973,20
8.96149358226371,0.7520135466759272,20
8.971495249208202,0.7204587460453229,20
8.981496916152693,0.6944710083061276,20
8.991498583097183,0.655057885221428,20
9.001500250041675,0.6101959736184581,20
9.011501916986164,0.5827266316592867,20
9.021503583930656,0.5096982088079541,20
9.031505250875146,0.47212783540496867,20
9.041506917819637,0.409559284630066,20
9.051508584764127,0.37364020913033896,20
9.061510251708619,0.3085672381458773,20
9.071511918653108,0.28253019779586647,20
9.0815135855976,0.21222023316836308,20
9.091515252542091,0.17907164661699493,20
9.101516919486581,0.1513005167323723,20
9.111518586431073,0.10776577576797439,20
9.121520253375563,0.09275066970217416,20
9.131521920320054,0.06188011191075034,20
9.141523587264544,0.034723582552108764,20
9.151525254209036,0.007282319542742562,20
9.161526921153525,0.012433131833248309,20
9.171528588098017,-0.007795073501248556,20
9.181530255042507,-0.003649428684307539,20
9.191531921986998,-0.0010278189889667564,20
9.20153358893149,-0.011899746188016534,20
9.21153525587598,0.0006238135037187412,20
9.221536922820471,-0.012766376732751293,20
9.231538589764961,0.004761679620283888,20
9.241540256709452,-0.021120678129930903,20
9.251541923653942,-0.012548111007038452,20
9.261543590598434,-0.011665961657667034,20
9.271545257542924,-0.04990685257152501,20
9.281546924487415,-0.048563556793693334,20
9.291548591431905,-0.09238644108155707,20
9.301550258376396,-0.10689167657829628,20
9.311551925320888,-0.15400679612596424,20
9.321553592265378,-0.17938784273831476,20
9.33155525920987,-0.2194138109774308,20
9.34155692615436,-0.27894741980722215,20
9.35155859309885,-0.3190312471881509,20
9.36156026004334,-0.3916694626124792,20
9.371561926987832,-0.40110686961072134,20
9.381563593932322,-0.4712163643138575,20
9.391565260876813,-0.5339732561437428,20
9.401566927821303,-0.5745718262501084,20
9.411568594765795,-0.6273682701977421,20
9.421570261710285,-0.6831142812875594,20
9.431571928654776,-0.7192377558048492,20
9.441573595599268,-0.7264725988873679,20
9.451575262543757,-0.7590518888657118,20
9.461576929488249,-0.774070954090078,20
9.471578596432739,-0.7637874525146124,20
9.48158026337723,-0.7731238460397026,20
9.49158193032172,-0.7565404130002434,20
9.501583597266212,-0.7335889802397789,20
9.511585264210701,-0.7094970407711618,20
9.521586931155193,-0.6460074384480295,20
9.531588598099683,-0.5960672942978911,20
9.541590265044174,-0.543794438242159,20
9.551591931988666,-0.47443732176187037,20
9.561593598933156,-0.3931837926203948,20
9.571595265877647,-0.3128850661052283,20
9.581596932822137,-0.20029342985161896,20
9.591598599766629,-0.13721307596466775,20
9.601600266711118,-0.029607770350140238,20
9.61160193365561,0.06265453925432977,20
9.6216036006001,0.13247985854236896,20
9.631605267544591,0.23142786388759812,20
9.641606934489081,0.3407500832704327,20
9.651608601433573,0.4146391940986543,20
9.661610268378064,0.4817012599047328,20
9.671611935322554,0.5522807503446692,20
9.681613602267046,0.6056653695885958,20
9.691615269211535,0.6677090051377521,20
9.701616936156027,0.7001899190007483,20
9.711618603100517,0.7409501079667664,20
9.721620270045008,0.7599876519136093,20
9.731621936989498,0.7697453802979315,20
9.74162360393399,0.7746465766979613,20
9.75162527087848,0.7674819181867528,20
9.761626937822971,0.7607517226604399,20
9.77162860476746,0.7329432894563278,20
9.781630271711952,0.6940943635804337,20
9.791631938656444,0.6855993602266195,20
9.801633605600934,0.6147169247956854,20
9.811635272545425,0.5688523679927628,20
9.821636939489915,0.5315397114823567,20
9.831638606434407,0.4902199047248371,20
9.841640273378896,0.4200829858792969,20
9.851641940323388,0.3689920545242789,20
9.861643607267878,0.3037713064987067,20
9.87164527421237,0.2720139869066942,20
9.881646941156859,0.2074205840615909,20
9.89164860810135,0.16861402028265107,20
9.901650275045842,0.14507526555393752,20
9.911651941990332,0.10361494127678283,20
9.921653608934824,0.0903194220635522,20
9.931655275879313,0.067482607580844,20
9.941656942823805,0.0445028230837302,20
9.951658609768295,0.007100091605063063,20
9.961660276712786,0.017092753825864764,20
9.971661943657276,-0.0036144774323548685,20
9.981663610601768,0.007981343837418439,20
9.991665277546257,-0.00226273253172928,20
10.001666944490749,-0.0010476761106672334,20
10.01166861143524,-0.0028623451297762783,20
10.02167027837973,-0.0016949692734640157,20
10.031671945324222,-0.007449382144716263,20
10.041673612268712,-0.004409340536522498,20
10.051675279213203,-0.018838164880456188,20
10.061676946157693,-0.047394829671676436,20
10.071678613102184,-0.04524752428041165,20
10.081680280046674,-0.06337407668240044,20
10.091681946991166,-0.08303927739336725,20
10.101683613935656,-0.10106485833990661,20
10.111685280880147,-0.14578130600112982,20
10.121686947824637,-0.17197753960402834,20
10.131688614769129,-0.20976205182698882,20
10.14169028171362,-0.2890009048883471,20
10.15169194865811,-0.32582523146261927,20
10.161693615602601,-0.3737534246167683,20
10.171695282547091,-0.41333446469098145,20
10.181696949491583,-0.4792563562700805,20
10.191698616436073,-0.5141623211794938,20
10.201700283380564,-0.5858076850080064,20
10.211701950325054,-0.6117385800964815,20
10.221703617269545,-0.680584129653478,20
10.231705284214035,-0.683918013140631,20
10.241706951158527,-0.7372642179359997,20
10.251708618103018,-0.7579441038987417,20
10.261710285047508,-0.7649128366161309,20
10.271711951992,-0.7770592915986455,20
10.28171361893649,-0.7743491931717092,20
10.291715285880981,-0.7511896418867837,20
10.30171695282547,-0.7349815850174539,20
10.311718619769962,-0.7266778246389101,20
10.321720286714452,-0.6615639652567707,20
10.331721953658944,-0.6079967948692921,20
10.341723620603434,-0.5561885775342045,20
10.351725287547925,-0.4834386699307313,20
10.361726954492417,-0.4009988634363245,20
10.371728621436906,-0.306676767400597,20
10.381730288381398,-0.2403819712028107,20
10.391731955325888,-0.14751848811233914,20
10.40173362227038,-0.03419823691315857,20
10.41173528921487,0.052219440524492816,20
10.42173695615936,0.12705279025571065,20
10.43173862310385,0.25035937616714016,20
10.441740290048342,0.3329861156277921,20
10.451741956992832,0.4082470823156923,20
10.461743623937323,0.46747189691184415,20
10.471745290881813,0.5519135652661644,20
10.481746957826305,0.615538517058553,20
10.491748624770796,0.6664971331978948,20
10.501750291715286,0.7025190888047033,20
10.511751958659778,0.7263105704968282,20
10.521753625604267,0.7747781056959311,20
10.531755292548759,0.7517841207076322,20
10.541756959493249,0.7825562981054882,20
10.55175862643774,0.7665894692351491,20
10.56176029338223,0.7699132835809617,20
10.571761960326722,0.7335137413296635,20
10.581763627271211,0.6975496057861104,20
10.591765294215703,0.6370897925783394,20
10.601766961160195,0.6191209447769238,20
10.611768628104684,0.5763292981837836,20
10.621770295049176,0.5143304960098724,20
10.631771961993666,0.4836807020218385,20
10.641773628938157,0.4045572521568317,20
10.651775295882647,0.3564478023259417,20
10.661776962827139,0.3004595553956555,20
10.671778629771628,0.2592182995991652,20
10.68178029671612,0.2142878703080702,20
10.69178196366061,0.17587640942158633,20
10.701783630605101,0.14697731146331527,20
10.711785297549593,0.11545156586035916,20
10.721786964494083,0.07088496351294268,20
10.731788631438574,0.05427728819530063,20
10.741790298383064,0.04313757154068646,20
10.751791965327556,0.026264479494126036,20
10.761793632272045,0.018735888965248707,20
10.771795299216537,0.0022264237080650354,20
10.781796966161027,-0.00813103885672601,20
10.791798633105518,0.005616214745962434,20
10.801800300050008,-0.00554022506802956,20
10.8118019669945,0.007797886655008022,20
10.82180363393899,0.012988235228757914,20
10.831805300883481,-0.004858312569714149,20
10.841806967827972,0.00036661300867146286,20
10.851808634772462,-0.012984114980565276,20
10.861810301716954,-0.022359296656954446,20
10.871811968661444,-0.030988452818943017,20
10.881813635605935,-0.05676521120364264,20
10.891815302550425,-0.09426228469820411,20
10.901816969494917,-0.11252262883528101,20
10.911818636439406,-0.1394827424948438,20
10.921820303383898,-0.1953431807876328,20
10.931821970328388,-0.2194295014546501,20
10.94182363727288,-0.2834650652937256,20
10.95182530421737,-0.3047833848585183,20
10.96182697116186,-0.37907837756763807,20
10.971828638106352,-0.4233870004214035,20
10.981830305050842,-0.47178830963728097,20
10.991831971995333,-0.5186167593474506,20
11.001833638939823,-0.5732969029421763,20
11.011835305884315,-0.6228211950117254,20
11.021836972828805,-0.6612946379307977,20
11.031838639773296,-0.6869052197422941,20
11.041840306717786,-0.7278724581672935,20
11.051841973662277,-0.7552331868718926,20
11.061843640606769,-0.7764346889446901,20
11.071845307551259,-0.7708793910282432,20
11.08184697449575,-0.781389174893684,20
11.09184864144024,-0.7576699064760464,20
11.101850308384732,-0.7270371844242098,20
11.111851975329222,-0.7174908175859575,20
11.121853642273713,-0.6534841915481335,20
11.131855309218203,-0.6001608964451378,20
11.141856976162694,-0.550486324178,20
11.151858643107184,-0.49003662472596476,20
11.161860310051676,-0.39793697718267046,20
11.171861976996166,-0.3317053289067716,20
11.181863643940657,-0.2256661508294767,20
11.191865310885149,-0.1320010961602463,20
11.201866977829638,-0.05532627574232882,20
11.21186864477413,0.05069459715170335,20
11.22187031171862,0.15691152572097705,20
11.231871978663111,0.24075437217191087,20
11.241873645607601,0.33307978161836227,20
11.251875312552093,0.403018532764214,20
11.261876979496583,0.48726410755350696,20
11.271878646441074,0.5392291703385006,20
11.281880313385564,0.5944907735029547,20
11.291881980330055,0.6622008059622894,20
11.301883647274547,0.7091395774715417,20
11.311885314219037,0.717042869101067,20
11.321886981163528,0.7682824581526604,20
11.331888648108018,0.771452123322255,20
11.34189031505251,0.7824038676255002,20
11.351891981997,0.785970406088582,20
11.361893648941491,0.7670380293866489,20
11.37189531588598,0.7279521511150474,20
11.381896982830472,0.71279858768259,20
11.391898649774962,0.6547388874693263,20
11.401900316719454,0.6226031815203977,20
11.411901983663945,0.5575115354479174,20
11.421903650608435,0.5249902974930518,20
11.431905317552927,0.4753520657194586,20
11.441906984497416,0.4089540965293161,20
11.451908651441908,0.3748762590604424,20
11.461910318386398,0.33413267555481885,20
11.47191198533089,0.26857458554725916,20
11.481913652275379,0.20957854864713188,20
11.49191531921987,0.18495476848043885,20
11.50191698616436,0.14703370813282057,20
11.511918653108852,0.11439013221340097,20
11.521920320053344,0.07703125101498458,20
11.531921986997833,0.06095280868361584,20
11.541923653942325,0.04611544215117543,20
11.551925320886815,0.011981065612261914,20
11.561926987831306,0.011467639330779041,20
11.571928654775796,-0.0074385456144856615,20
11.581930321720288,-0.0092927583656652,20
11.591931988664777,0.007783625182226728,20
11.601933655609269,0.008221568678754294,20
11.611935322553759,0.009825094596151968,20
11.62193698949825,0.0026387284690116385,20
11.63193865644274,-0.004750388573197709,20
11.641940323387232,0.01439570851092637,20
11.651941990331723,-0.007255752512336483,20
11.661943657276213,-0.018928534391771716,20
11.671945324220705,-0.03533390524079963,20
11.681946991165194,-0.036654477634687335,20
11.691948658109686,-0.07646439841319609,20
11.701950325054176,-0.11112176545980737,20
11.711951991998667,-0.15342564843616116,20
11.721953658943157,-0.1872101039702508,20
11.731955325887649,-0.222299559055707,20
11.741956992832138,-0.2712312300497388,20
11.75195865977663,-0.3334049637662534,20
11.761960326721121,-0.3446907296371815,20
11.771961993665611,-0.43609398978218095,20
11.781963660610103,-0.4719052613839333,20
11.791965327554593,-0.5255768463765136,20
11.801966994499084,-0.571053203134034,20
11.811968661443574,-0.6233920386444517,20
11.821970328388065,-0.6790001685988462,20
11.831971995332555,-0.7081603437296126,20
11.841973662277047,-0.7245894191678611,20
11.851975329221537,-0.7412783763355915,20
11.861976996166028,-0.7618079560430243,20
11.87197866311052,-0.7895918102848369,20
11.88198033005501,-0.7759739429193798,20
11.891981996999501,-0.7697707785220728,20
11.90198366394399,-0.7403385734632091,20
11.911985330888482,-0.7153459089809195,20
11.921986997832972,-0.6534581556202722,20
11.931988664777464,-0.6153848534387008,20
11.941990331721954,-0.5428679839847473,20
11.951991998666445,-0.4766764047440248,20
11.961993665610935,-0.4001340450268299,20
11.971995332555426,-0.33056168939950686,20
11.981996999499916,-0.23053275592645128,20
11.991998666444408,-0.13551555737509496,20
12.0020003333889,-0.058686895805893716,20
12.01200200033339,0.026790412501102447,20
12.02200366727788,0.1651609545349211,20
12.03200533422237,0.2300874809307563,20
12.042007001166862,0.3198514461293979,20
12.052008668111352,0.40962578813192363,20
12.062010335055843,0.49429052142576396,20
12.072012002000333,0.5276519582004346,20
12.082013668944825,0.5852988971923467,20
12.092015335889315,0.6643194308864726,20
12.102017002833806,0.7008595597370125,20
12.112018669778298,0.7426529287607024,20
12.122020336722787,0.7605766578913937,20
12.132022003667279,0.7724977862634939,20
12.142023670611769,0.7617481046858653,20
12.15202533755626,0.7774310277801437,20
12.16202700450075,0.7569482317549682,20
12.172028671445242,0.7324819297325634,20
12.182030338389731,0.707710827692031,20
12.192032005334223,0.6623459745433838,20
12.202033672278713,0.6096237667549761,20
12.212035339223204,0.5739873844228577,20
12.222037006167696,0.543021664673379,20
12.232038673112186,0.4736472443603481,20
12.242040340056677,0.4263914470342781,20
12.252042007001167,0.3771099265023391,20
12.262043673945659,0.3101845656131474,20
12.272045340890148,0.2847442828339795,20
12.28204700783464,0.21628735830725562,20
12.29204867477913,0.18507331600829907,20
12.302050341723621,0.1482703085339624,20
12.312052008668111,0.10681082578188109,20
12.322053675612603,0.105757044576336,20
12.332055342557092,0.050776558816219806,20
12.342057009501584,0.0561016780980986,20
12.352058676446076,0.03821685480768377,20
12.362060343390565,-0.001217496731406826,20
12.372062010335057,-0.000962900237040952,20
12.382063677279547,-0.0023851819413178077,20
12.392065344224038,0.007684126632620511,20
12.402067011168528,-0.022174522678514504,20
12.41206867811302,0.01032018970950687,20
12.42207034505751,-5.8972524492189064e-05,20
12.432072012002001,-0.0037219736910160724,20
12.44207367894649,-0.014438213069321923,20
12.452075345890982,-0.016877057860217377,20
12.462077012835474,-0.029371080704823777,20
12.472078679779964,-0.036525411528284264,20
12.482080346724455,-0.042404368650893115,20
12.492082013668945,-0.08391130804988416,20
12.502083680613437,-0.09967000497236449,20
12.512085347557926,-0.14185320749676836,20
12.522087014502418,-0.18113348635136325,20
12.532088681446908,-0.1974071831530376,20
12.5420903483914,-0.26905774373426244,20
12.552092015335889,-0.3116875591538163,20
12.56209368228038,-0.3669016731715024,20
12.572095349224872,-0.43428487186739656,20
12.582097016169362,-0.4660010146311257,20
12.592098683113853,-0.5094498413532963,20
12.602100350058343,-0.5688858539220131,20
12.612102017002835,-0.6215241068034572,20
12.622103683947325,-0.6638937151361994,20
12.632105350891816,-0.6781562401821353,20
12.642107017836306,-0.7329836844368159,20
12.652108684780798,-0.7710040365539947,20
12.662110351725287,-0.7736059195319511,20
12.672112018669779,-0.7794061259680353,20
12.682113685614269,-0.7829538897746242,20
12.69211535255876,-0.7514153747806905,20
12.702117019503252,-0.7451302864042431,20
12.712118686447742,-0.6955970611903436,20
12.722120353392233,-0.6704005214145761,20
12.732122020336723,-0.6101902407962773,20
12.742123687281214,-0.5623253415453353,20
12.752125354225704,-0.4843569673465255,20
12.762127021170196,-0.39646810313622394,20
12.772128688114686,-0.30838194248981476,20
12.782130355059177,-0.2416037924491685,20
12.792132022003667,-0.13410282096268844,20
12.802133688948159,-0.07197505564086851,20
12.81213535589265,0.03309996961603056,20
12.82213702283714,0.1443379717342195,20
12.832138689781631,0.22468967924826616,20
12.842140356726121,0.3098185147831715,20
12.852142023670613,0.41157142423002935,20
12.862143690615103,0.47455777796006293,20
12.872145357559594,0.5568673868212631,20
12.882147024504084,0.6033317365421085,20
12.892148691448575,0.6671075626983418,20
12.902150358393065,0.6914463469130961,20
12.912152025337557,0.7521648418232115,20
12.922153692282048,0.7594222909355348,20
12.932155359226538,0.7839819283976014,20
12.94215702617103,0.7742403552167002,20
12.95215869311552,0.7712662308343142,20
12.962160360060011,0.7647924996771845,20
12.9721620270045,0.7315479614414856,20
12.982163693948992,0.7124945878447686,20
12.992165360893482,0.6598568360428934,20
13.002167027837974,0.6222075725624617,20
13.012168694782464,0.5653815396027666,20
13.022170361726955,0.5324525803005494,20
13.032172028671445,0.46775829254378815,20
13.042173695615936,0.4177036380835116,20
13.052175362560428,0.3767633183903185,20
13.062177029504918,0.31263111367968777,20
13.07217869644941,0.2701536393429016,20
13.0821803633939,0.23678199586368623,20
13.09218203033839,0.19664729535446748,20
13.10218369728288,0.14411614575903817,20
13.112185364227372,0.11631975881028474,20
13.122187031171862,0.0695383466362421,20
13.132188698116353,0.06737937858165673,20
13.142190365060843,0.04062143937012137,20
13.152192032005335,0.023370756937223493,20
13.162193698949826,0.0017593651193787852,20
13.172195365894316,0.017639429196895047,20
13.182197032838808,0.017609078262567676,20
13.192198699783297,-0.0061293147149741704,20
13.202200366727789,0.00011259320621583252,20
13.212202033672279,0.004354712450690444,20
13.22220370061677,-0.00673318187427366,20
13.23220536756126,0.0033344531169569,20
13.242207034505752,-0.014848514249014916,20
13.252208701450241,0.009253053867881635,20
13.262210368394733,-0.0139278566027699,20
13.272212035339225,-0.033066963920747545,20
13.282213702283714,-0.06185688027630931,20
13.292215369228206,-0.08776599790443705,20
13.302217036172696,-0.11422078482379669,20
13.312218703117187,-0.1443313109230894,20
13.322220370061677,-0.18338634591612993,20
13.332222037006169,-0.21097999674153892,20
13.342223703950658,-0.24133499369120312,20
13.35222537089515,-0.31258136161874533,20
13.36222703783964,-0.36034582145793215,20
13.372228704784131,-0.4291858202851088,20
13.382230371728621,-0.47653208063256647,20
13.392232038673113,-0.5402452559745021,20
13.402233705617604,-0.5637160041351075,20
13.412235372562094,-0.6227945119413898,20
13.422237039506586,-0.6641222983544127,20
13.432238706451075,-0.6895573126716941,20
13.442240373395567,-0.7203901070170039,20
13.452242040340057,-0.7447193549671632,20
13.462243707284548,-0.7605855702146296,20
13.472245374229038,-0.7726152573553868,20
13.48224704117353,-0.7857338149597473,20
13.49224870811802,-0.7625159189849494,20
13.502250375062511,-0.7385181416417593,20
13.512252042007002,-0.6932595290832425,20
13.522253708951492,-0.6627558010139096,20
13.532255375895984,-0.6295672015893341,20
13.542257042840474,-0.5644430935517954,20
13.552258709784965,-0.48997019906363165,20
13.562260376729455,-0.3864577109305505,20
13.572262043673947,-0.3226335847752029,20
13.582263710618436,-0.2380902574353124,20
13.592265377562928,-0.1635832483952244,20
13.602267044507418,-0.05542834195667779,20
13.61226871145191,0.036033966730102396,20
13.6222703783964,0.14085866080101428,20
13.63227204534089,0.22403753344758792,20
13.642273712285382,0.32645864701219707,20
13.652275379229872,0.38024907116058765,20
13.662277046174363,0.484217318378383,20
13.672278713118853,0.5534656882423905,20
13.682280380063345,0.6325406415362764,20
13.692282047007835,0.6568635914313368,20
13.702283713952326,0.682915205530376,20
13.712285380896816,0.7323007572204651,20
13.722287047841307,0.7542781148100364,20
13.732288714785797,0.7842858486705865,20
13.742290381730289,0.776347707785149,20
13.75229204867478,0.7638633567118911,20
13.76229371561927,0.7653419750616509,20
13.772295382563762,0.7447555991124448,20
13.782297049508252,0.7017151046770334,20
13.792298716452743,0.6774479075502919,20
13.802300383397233,0.618863004931369,20
13.812302050341724,0.5707541167295496,20
13.822303717286214,0.5409671864544908,20
13.832305384230706,0.48723798625134596,20
13.842307051175196,0.42013448360598665,20
13.852308718119687,0.36844819426882763,20
13.862310385064179,0.32256244576855136,20
13.872312052008668,0.28292854535447653,20
13.88231371895316,0.22697190501280798,20
13.89231538589765,0.20243754645401218,20
13.902317052842141,0.13493558549496168,20
13.912318719786631,0.11570135380605998,20
13.922320386731123,0.06567413160931532,20
13.932322053675612,0.06283863310467075,20
13.942323720620104,0.022212016779114437,20
13.952325387564594,0.004930680966821897,20
13.962327054509085,0.013904009357025442,20
13.972328721453577,0.012398343255920818,20
13.982330388398067,-0.0016719826308048222,20
13.992332055342558,0.0005909699731338301,20
14.002333722287048,-0.007401384417532561,20
14.01233538923154,0.002814554542634854,20
14.02233705617603,0.00014408776283375384,20
14.032338723120521,-0.005531646586419189,20
14.04234039006501,0.005736148846996043,20
14.052342057009502,-0.010777679892337915,20
14.062343723953992,-0.03359853346923583,20
14.072345390898484,-0.028712613461736237,20
14.082347057842973,-0.052159378318395205,20
14.092348724787465,-0.08560810579698482,20
14.102350391731957,-0.10808387610634293,20
14.112352058676446,-0.1350950879838921,20
14.122353725620938,-0.17000788859984864,20
14.132355392565428,-0.2240301327587318,20
14.14235705950992,-0.2479404468090436,20
14.152358726454409,-0.29957777923800794,20
14.1623603933989,-0.36611004783539075,20
14.17236206034339,-0.41725694516027656,20
14.182363727287882,-0.4709611206965593,20
14.192365394232372,-0.5312366659296043,20
14.202367061176863,-0.5768333709136164,20
14.212368728121355,-0.6239786674812814,20
14.222370395065845,-0.6460772564204339,20
14.232372062010336,-0.7023021797134834,20
14.242373728954826,-0.742555485184063,20
14.252375395899318,-0.7624692603606771,20
14.262377062843807,-0.7685014040305007,20
14.272378729788299,-0.7867215939024687,20
14.282380396732789,-0.7886110018746376,20
14.29238206367728,-0.7580671541857202,20
14.30238373062177,-0.7568867993149403,20
14.312385397566262,-0.7242818043710735,20
14.322387064510753,-0.6650463549689085,20
14.332388731455243,-0.6124520087530629,20
14.342390398399735,-0.5672283661571519,20
14.352392065344224,-0.4800263916192833,20
14.362393732288716,-0.42289404518915913,20
14.372395399233206,-0.3348381970434298,20
14.382397066177697,-0.25087762031354677,20
14.392398733122187,-0.15957017897318854,20
14.402400400066679,-0.04983415902127077,20
14.412402067011168,0.04182141381867982,20
14.42240373395566,0.14438215767412743,20
14.432405400900151,0.22588925708463067,20
14.442407067844641,0.3006531468147345,20
14.452408734789133,0.4033716019076442,20
14.462410401733623,0.47971842785421387,20
14.472412068678114,0.5509990291066064,20
14.482413735622604,0.5998826693753704,20
14.492415402567095,0.6542160006701491,20
14.502417069511585,0.7137316579543455,20
14.512418736456077,0.7485067865244428,20
14.522420403400567,0.7461417860594218,20
14.532422070345058,0.7749442536559311,20
14.542423737289548,0.7821512823908421,20
14.55242540423404,0.7728767507217239,20
14.562427071178531,0.7648572101198827,20
14.57242873812302,0.7335049239581399,20
14.582430405067512,0.7115401788059518,20
14.592432072012002,0.6697593664465659,20
14.602433738956494,0.6219890238516131,20
14.612435405900984,0.5735580130645496,20
14.622437072845475,0.5316011003906888,20
14.632438739789965,0.46987299509987573,20
14.642440406734456,0.4225507173382308,20
14.652442073678946,0.3703721611243788,20
14.662443740623438,0.3318608994703329,20
14.67244540756793,0.27009272155064945,20
14.68244707451242,0.2255153855898459,20
14.69244874145691,0.1732500807856968,20
14.7024504084014,0.15218531824160397,20
14.712452075345892,0.12423661528321009,20
14.722453742290382,0.06160522604680513,20
14.732455409234873,0.05313864112777094,20
14.742457076179363,0.043799084155505874,20
14.752458743123855,0.015951505070458054,20
14.762460410068345,0.006041742407907136,20
14.772462077012836,0.02079147305101652,20
14.782463743957328,0.009755944128423462,20
14.792465410901817,0.0022715701523649636,20
14.802467077846309,0.0036044840595855065,20
14.812468744790799,0.005689232491242986,20
14.82247041173529,0.020054908107915284,20
14.83247207867978,-0.014037981292895125,20
14.842473745624272,-0.005808832565767624,20
14.852475412568761,-0.007381199088023438,20
14.862477079513253,-0.03911779028706787,20
14.872478746457743,-0.03084018536168379,20
14.882480413402234,-0.07527072662892366,20
14.892482080346724,-0.07333393972292965,20
14.902483747291216,-0.0786017068411576,20
14.912485414235707,-0.14201533759419918,20
14.922487081180197,-0.18287094428731937,20
14.932488748124689,-0.20567492027784504,20
14.942490415069178,-0.2762785278188891,20
14.95249208201367,-0.2925436888827269,20
14.96249374895816,-0.35704659947505696,20
14.972495415902651,-0.41148928324170314,20
14.982497082847141,-0.4683659943399366,20
14.992498749791633,-0.5067303453897288,20
15.002500416736122,-0.5710220234036255,20
15.012502083680614,-0.6143652791456033,20
15.022503750625106,-0.6643549543518628,20
15.032505417569595,-0.6908719313827306,20
15.042507084514087,-0.7294076374645524,20
15.052508751458577,-0.7389665256640399,20
15.062510418403068,-0.760975912613478,20
15.072512085347558,-0.792738725023065,20
15.08251375229205,-0.7783096880876835,20
15.09251541923654,-0.782574305049913,20
15.102517086181031,-0.7375269785373291,20
15.11251875312552,-0.698008554232558,20
15.122520420070012,-0.6721561088029069,20
15.132522087014504,-0.6034113080067209,20
15.142523753958994,-0.5649432727001106,20
15.152525420903485,-0.5029176121061729,20
15.162527087847975,-0.4196279372546803,20
15.172528754792467,-0.32098290716330624,20
15.182530421736956,-0.2602728275884829,20
15.192532088681448,-0.14557738306453324,20
15.202533755625938,-0.061531829315698026,20
15.21253542257043,0.027057642279742555,20
15.222537089514919,0.11756103415190662,20
15.23253875645941,0.21583572985295532,20
15.2425404234039,0.31508386376388475,20
15.252542090348392,0.37429309393460924,20
15.262543757292883,0.4881302058793222,20
15.272545424237373,0.5432042177894547,20
15.282547091181865,0.6004629956731653,20
15.292548758126355,0.6620409488713431,20
15.302550425070846,0.7019412839125906,20
15.312552092015336,0.729476152260179,20
15.322553758959828,0.7522963979291151,20
15.332555425904317,0.7854688654247246,20
15.342557092848809,0.7768820390477033,20
15.352558759793299,0.7890788017508704,20
15.36256042673779,0.7689690891837071,20
15.372562093682282,0.7254932557804968,20
15.382563760626772,0.696548131864427,20
15.392565427571263,0.665864703847914,20
15.402567094515753,0.6355274737737386,20
15.412568761460244,0.5882366092387789,20
15.422570428404734,0.5359917983057065,20
15.432572095349226,0.4785315748511329,20
15.442573762293716,0.42553047017785134,20
15.452575429238207,0.36354611712304935,20
15.462577096182697,0.3226245680228387,20
15.472578763127188,0.28238638723477516,20
15.48258043007168,0.23331751556904856,20
15.49258209701617,0.18272869391653915,20
15.502583763960661,0.14661787238319282,20
15.512585430905151,0.1191990877091413,20
15.522587097849643,0.07961527827426904,20
15.532588764794133,0.056575955636219186,20
15.542590431738624,0.05413583927654839,20
15.552592098683114,0.04099400897527622,20
15.562593765627605,0.006917703627574746,20
15.572595432572095,0.0026207989025622156,20
15.582597099516587,0.000808864797519709,20
15.592598766461077,0.006917694514847063,20
15.602600433405568,-0.0031798407573453234,20
15.61260210035006,0.008272338440084365,20
15.62260376729455,-0.009962797494923467,20
15.632605434239041,0.015294579095845067,20
15.64260710118353,0.021836584571172553,20
15.652608768128022,-0.0015720373672712257,20
15.662610435072512,-0.011639733324986273,20
15.672612102017004,-0.03399644733089022,20
15.682613768961494,-0.05845465311707654,20
15.692615435905985,-0.07925626024223088,20
15.702617102850475,-0.10095932285670331,20
15.712618769794966,-0.14078212819962604,20
15.722620436739458,-0.169036865265907,20
15.732622103683948,-0.20660691535252934,20
15.74262377062844,-0.2453417060268306,20
15.752625437572929,-0.3232701083854299,20
15.76262710451742,-0.36596622782958455,20
15.77262877146191,-0.4211656980993011,20
15.782630438406402,-0.4580421050134985,20
15.792632105350892,-0.5163464286141879,20
15.802633772295383,-0.5681740378331344,20
15.812635439239873,-0.6083567081183558,20
15.822637106184365,-0.6397187806081043,20
15.832638773128856,-0.6974515835631266,20
15.842640440073346,-0.7425121709385571,20
15.852642107017838,-0.7556602716736861,20
15.862643773962327,-0.7662204199906243,20
15.872645440906819,-0.7667807590957674,20
15.882647107851309,-0.776591190682484,20
15.8926487747958,-0.7745955663130463,20
15.90265044174029,-0.7545330220434174,20
15.912652108684782,-0.7098819975883836,20
15.922653775629271,-0.6498712273527693,20
15.932655442573763,-0.621659973539174,20
15.942657109518253,-0.5649730742709843,20
15.952658776462744,-0.5003483613706171,20
15.962660443407236,-0.42405137464422715,20
15.972662110351726,-0.36258574126195525,20
15.982663777296217,-0.2509964845257285,20
15.992665444240707,-0.16256108578413167,20
16.002667111185197,-0.07486284513044034,20
16.01266877812969,0.034425955510230956,20
16.02267044507418,0.1229879624856092,20
16.03267211201867,0.21987671675853596,20
16.04267377896316,0.3017423336016244,20
16.052675445907653,0.37614304758125766,20
16.062677112852143,0.45632928112772514,20
16.072678779796632,0.5557699260114101,20
16.082680446741126,0.5972343039904137,20
16.092682113685616,0.6665838607404933,20
16.102683780630105,0.7106214931412915,20
16.112685447574595,0.7296281374525181,20
16.12268711451909,0.7574630382937028,20
16.132688781463578,0.7684756635051165,20
16.142690448408068,0.7815801044175215,20
16.152692115352558,0.7784380166320617,20
16.16269378229705,0.7621890088098883,20
16.17269544924154,0.7251429106252576,20
16.18269711618603,0.7177762693997913,20
16.192698783130524,0.6813084741087628,20
16.202700450075014,0.6377213147112885,20
16.212702117019504,0.585767572860079,20
16.222703783963993,0.5415895344280892,20
16.232705450908487,0.4768945978115919,20
16.242707117852976,0.42149242984012053,20
16.252708784797466,0.3763170122224449,20
16.262710451741956,0.330955347015377,20
16.27271211868645,0.2930778910111775,20
16.28271378563094,0.21177703791421693,20
16.29271545257543,0.19696628236258895,20
16.302717119519922,0.1488604587770943,20
16.312718786464412,0.11234433201656269,20
16.322720453408902,0.07168336092287778,20
16.33272212035339,0.0635278879102856,20
16.342723787297885,0.04515428541078068,20
16.352725454242375,0.01664148920047743,20
16.362727121186865,0.020994025504378178,20
16.372728788131354,0.0025510316756297948,20
16.382730455075848,0.009050530978398724,20
16.392732122020337,0.004012911632416688,20
16.402733788964827,-0.014377412778316875,20
16.41273545590932,-0.00902333293717671,20
16.42273712285381,-0.018553299852551535,20
16.4327387897983,-0.005308101360966291,20
16.44274045674279,0.005966954706329419,20
16.452742123687283,-0.008786962676038592,20
16.462743790631773,-0.021456237266739626,20
16.472745457576263,-0.016510604802616097,20
16.482747124520753,-0.04794186836055264,20
16.492748791465246,-0.05723453617801347,20
16.502750458409736,-0.10949295204368281,20
16.512752125354226,-0.13745632799987154,20
16.522753792298715,-0.17376083850480598,20
16.53275545924321,-0.21417999666414106,20
16.5427571261877,-0.24614219293597048,20
16.55275879313219,-0.3021236801600335,20
16.56276046007668,-0.3790571992771199,20
16.57276212702117,-0.421325444237695,20
16.58276379396566,-0.4694199102629921,20
16.59276546091015,-0.5283758634538769,20
16.602767127854644,-0.5664598164305638,20
16.612768794799134,-0.6105776824019697,20
16.622770461743624,-0.660861560989426,20
16.632772128688114,-0.6977547570436069,20
16.642773795632607,-0.7193097780369992,20
16.652775462577097,-0.7640897972118872,20
16.662777129521587,-0.7570794863537867,20
16.67277879646608,-0.7807932547368247,20
16.68278046341057,-0.8031891903183203,20
16.69278213035506,-0.7626290703648447,20
16.70278379729955,-0.7235387358452139,20
16.712785464244043,-0.710547895279623,20
16.722787131188532,-0.660591121755158,20
16.732788798133022,-0.63654056137236,20
16.742790465077512,-0.5580788220715467,20
16.752792132022005,-0.498621146960783,20
16.762793798966495,-0.4202556140057901,20
16.772795465910985,-0.3438764979512828,20
16.782797132855478,-0.2521458809155526,20
16.792798799799968,-0.16410549194918095,20
16.802800466744458,-0.09428752013001397,20
16.812802133688947,0.025579242474513004,20
16.82280380063344,0.12326858509156494,20
16.83280546757793,0.214437538668397,20
16.84280713452242,0.2947510821539622,20
16.85280880146691,0.38337905435367786,20
16.862810468411404,0.4601311383241696,20
16.872812135355893,0.5231690947129548,20
16.882813802300383,0.6038091073862,20
16.892815469244876,0.6393687535907555,20
16.902817136189366,0.6711010140579713,20
16.912818803133856,0.750801989068768,20
16.922820470078346,0.7700079847542998,20
16.93282213702284,0.7621874496593187,20
16.94282380396733,0.7690321607115073,20
16.95282547091182,0.7756995362531078,20
16.96282713785631,0.7602053423829004,20
16.972828804800802,0.7428552632549483,20
16.98283047174529,0.708533984164746,20
16.99283213868978,0.680943427213226,20
17.002833805634275,0.6260539482019057,20
17.012835472578764,0.5826960750609401,20
17.022837139523254,0.551590358315972,20
17.032838806467744,0.4899688991490483,20
17.042840473412237,0.4215407114532563,20
17.052842140356727,0.3772051155393326,20
17.062843807301217,0.34010568407651076,20
17.072845474245707,0.28154516642443705,20
17.0828471411902,0.22050336549942018,20
17.09284880813469,0.19724403652381528,20
17.10285047507918,0.1475488050157792,20
17.112852142023673,0.11540438779587801,20
17.122853808968163,0.09541027298118324,20
17.132855475912653,0.045038266724049536,20
17.142857142857142,0.017196940593159602,20
17.152858809801636,0.01642902343432332,20
17.162860476746125,0.004860013459383311,20
17.172862143690615,-0.005763522038952584,20
17.182863810635105,-0.00989267552360037,20
17.1928654775796,-0.007290372695340759,20
17.202867144524088,0.0071400926309420415,20
17.212868811468578,-0.001446133822389754,20
17.222870478413068,0.011705425524511854,20
17.23287214535756,0.005968171526335725,20
17.24287381230205,-0.004138112545854848,20
17.25287547924654,-0.004756130281228046,20
17.262877146191034,-0.02722528312386139,20
17.272878813135524,-0.0442044248961481,20
17.282880480080014,-0.05872730206376056,20
17.292882147024503,-0.08084109332385905,20
17.302883813968997,-0.09175417622013897,20
17.312885480913486,-0.1374539035067422,20
17.322887147857976,-0.17495354514315237,20
17.332888814802466,-0.19851865958964013,20
17.34289048174696,-0.26171737836651143,20
17.35289214869145,-0.2976393137173129,20
17.36289381563594,-0.35984071553882574,20
17.372895482580432,-0.3944610520177518,20
17.382897149524922,-0.4556668615871873,20
17.392898816469412,-0.5133301731766696,20
17.4029004834139,-0.5485623268685819,20
17.412902150358395,-0.6113015204026225,20
17.422903817302885,-0.6445624508368198,20
17.432905484247375,-0.7040922719393333,20
17.442907151191864,-0.7195221239950673,20
17.452908818136358,-0.7507284676363334,20
17.462910485080847,-0.782630185483932,20
17.472912152025337,-0.7879536502305026,20
17.48291381896983,-0.7969008281461637,20
17.49291548591432,-0.7659358889839349,20
17.50291715285881,-0.7741088497540413,20
17.5129188198033,-0.7141755009144108,20
17.522920486747793,-0.6762365493141288,20
17.532922153692283,-0.6263577810128786,20
17.542923820636773,-0.5475438999273294,20
17.552925487581263,-0.49187308542066716,20
17.562927154525756,-0.42237941494856496,20
17.572928821470246,-0.3541147221368714,20
17.582930488414735,-0.25853425362120247,20
17.59293215535923,-0.16677270815078385,20
17.60293382230372,-0.07403012878381618,20
17.61293548924821,0.023180535751315495,20
17.622937156192698,0.11525906694596756,20
17.63293882313719,0.214525635572808,20
17.64294049008168,0.2930139353858,20
17.65294215702617,0.38517926834298655,20
17.66294382397066,0.4616180054286358,20
17.672945490915154,0.534814525573732,20
17.682947157859644,0.5946575699244978,20
17.692948824804134,0.6472707265571086,20
17.702950491748627,0.6968387380746001,20
17.712952158693117,0.7281911248447401,20
17.722953825637607,0.7544016134841554,20
17.732955492582096,0.7603759273711072,20
17.74295715952659,0.7727644507633434,20
17.75295882647108,0.7775118035645066,20
17.76296049341557,0.7676417712803338,20
17.77296216036006,0.7259128855008496,20
17.782963827304552,0.7061929538869552,20
17.792965494249042,0.6817181256068868,20
17.802967161193532,0.6207288381346251,20
17.812968828138025,0.5944277537501736,20
17.822970495082515,0.5430724616333021,20
17.832972162027005,0.486105607716219,20
17.842973828971495,0.4458583577526032,20
17.852975495915988,0.3726265221368922,20
17.862977162860478,0.33593001482587664,20
17.872978829804968,0.2714170154028583,20
17.882980496749457,0.22973599865662062,20
17.89298216369395,0.17267423929145176,20
17.90298383063844,0.14787191311190234,20
17.91298549758293,0.12237944815278085,20
17.92298716452742,0.10571682494932436,20
17.932988831471913,0.06227126599411104,20
17.942990498416403,0.04194102686379825,20
17.952992165360893,0.027564855433456745,20
17.962993832305386,0.0041848215626988025,20
17.972995499249876,0.006227172977986433,20
17.982997166194366,0.01909228236229887,20
17.992998833138856,0.0006761228055376941,20
18.00300050008335,0.004590535726940125,20
18.01300216702784,0.009506516614337105,20
18.02300383397233,-0.009385021322567957,20
18.03300550091682,-0.013246840343666551,20
18.04300716786131,-0.004205372674157415,20
18.0530088348058,-0.007261213445248344,20
18.06301050175029,-0.011752455057553672,20
18.073012168694785,-0.0436897699315438,20
18.083013835639274,-0.07696265631739253,20
18.093015502583764,-0.09091952693106584,20
18.103017169528254,-0.1069876754900244,20
18.113018836472747,-0.13165993090824674,20
18.123020503417237,-0.17935018691541046,20
18.133022170361727,-0.2086408662189415,20
18.143023837306217,-0.2564251734293164,20
18.15302550425071,-0.29272938324552106,20
18.1630271711952,-0.34822756156820645,20
18.17302883813969,-0.4132165355341359,20
18.183030505084183,-0.47616635910986344,20
18.193032172028673,-0.518025262868728,20
18.203033838973163,-0.5574838812100464,20
18.213035505917652,-0.6059078441750879,20
18.223037172862146,-0.6510885292427044,20
18.233038839806635,-0.7164582928475767,20
18.243040506751125,-0.7272879199313106,20
18.253042173695615,-0.7484122914839355,20
18.26304384064011,-0.7584075827355216,20
18.273045507584598,-0.767709472999675,20
18.283047174529088,-0.7653594004107424,20
18.29304884147358,-0.7681312434638075,20
18.30305050841807,-0.7459889704547502,20
18.31305217536256,-0.7293152802667155,20
18.32305384230705,-0.6745925665012578,20
18.333055509251544,-0.6294644142138054,20
18.343057176196034,-0.5618550684461202,20
18.353058843140523,-0.4931939458440657,20
18.363060510085013,-0.41470557636282585,20
18.373062177029507,-0.34130209304105746,20
18.383063843973996,-0.2603476566351534,20
18.393065510918486,-0.17412318672483895,20
18.40306717786298,-0.06952077605461697,20
18.41306884480747,0.008172512662057402,20
18.42307051175196,0.11261880664031353,20
18.43307217869645,0.21287143634389638,20
18.443073845640942,0.31014159835803545,20
18.453075512585432,0.3909892855986894,20
18.463077179529922,0.4572313913102251,20
18.47307884647441,0.516629152526124,20
18.483080513418905,0.6159913989131711,20
18.493082180363395,0.6473351368190036,20
18.503083847307884,0.6902343069161706,20
18.513085514252378,0.7337683562112164,20
18.523087181196868,0.7477816211035868,20
18.533088848141357,0.765769994733096,20
18.543090515085847,0.7901532926049407,20
18.55309218203034,0.7740824844912142,20
18.56309384897483,0.757470696374931,20
18.57309551591932,0.7453860633091224,20
18.58309718286381,0.722050105496111,20
18.593098849808303,0.6846157726493995,20
18.603100516752793,0.6418974162434959,20
18.613102183697283,0.5912514705176025,20
18.623103850641776,0.5353985232382117,20
18.633105517586266,0.4875634778090535,20
18.643107184530756,0.4374614178724131,20
18.653108851475245,0.38167134237128153,20
18.66311051841974,0.34792672989839124,20
18.67311218536423,0.2873021771476684,20
18.68311385230872,0.2271919292523405,20
18.693115519253208,0.18493300644034544,20
18.7031171861977,0.14285398105362798,20
18.71311885314219,0.1121288670326106,20
18.72312052008668,0.07840265956864566,20
18.73312218703117,0.07497057884154851,20
18.743123853975664,0.018837702393171618,20
18.753125520920154,0.03846491014689942,20
18.763127187864644,-0.0020045851189595225,20
18.773128854809137,0.007800309153515843,20
18.783130521753627,-0.001797718449251081,20
18.793132188698117,-0.0025284949508430072,20
18.803133855642606,0.006509869569534356,20
18.8131355225871,-0.008352536384017756,20
18.82313718953159,-0.009676366915528973,20
18.83313885647608,-0.005104062345544398,20
18.84314052342057,-0.0036739902320456264,20
18.853142190365062,0.008820467845669384,20
18.863143857309552,-0.027411389035754727,20
18.873145524254042,-0.023929705934453413,20
18.883147191198535,-0.03547684077315052,20
18.893148858143025,-0.07324828411400845,20
18.903150525087515,-0.09870148713043492,20
18.913152192032005,-0.13544667920951553,20
18.923153858976498,-0.15819592790193202,20
18.933155525920988,-0.19980991259655195,20
18.943157192865478,-0.2450091083952848,20
18.953158859809967,-0.30207423696910274,20
18.96316052675446,-0.3709762414696467,20
18.97316219369895,-0.42016340413042064,20
18.98316386064344,-0.4538328881571548,20
18.993165527587934,-0.5097509518199862,20
19.003167194532423,-0.5658918278316295,20
19.013168861476913,-0.6115966284519928,20
19.023170528421403,-0.6419980172004632,20
19.033172195365896,-0.6829139172038134,20
19.043173862310386,-0.7202369840008153,20
19.053175529254876,-0.7373136866042258,20
19.063177196199366,-0.7789858671740115,20
19.07317886314386,-0.7657777115679577,20
19.08318053008835,-0.7671350140005214,20
19.09318219703284,-0.7546438183497215,20
19.103183863977332,-0.7554995506280014,20
19.11318553092182,-0.7197266701336543,20
19.12318719786631,-0.6904117746042985,20
19.1331888648108,-0.6268970706433801,20
19.143190531755295,-0.5713548882730547,20
19.153192198699784,-0.5200679270643144,20
19.163193865644274,-0.41144876182893675,20
19.173195532588764,-0.3572971622704285,20
19.183197199533257,-0.2667257983931462,20
19.193198866477747,-0.1695387928512207,20
19.203200533422237,-0.0800435521031211,20
19.21320220036673,-0.0011362873715587904,20
19.22320386731122,0.09609724451754137,20
19.23320553425571,0.1819873082236153,20
19.2432072012002,0.2875553652816746,20
19.253208868144693,0.3888150715436837,20
19.263210535089183,0.46759605998155823,20
19.273212202033672,0.5198343899222058,20
19.283213868978162,0.5746640639728908,20
19.293215535922656,0.6433361384943038,20
19.303217202867145,0.7000151222855491,20
19.313218869811635,0.7230174243652256,20
19.32322053675613,0.7548961408097546,20
19.33322220370062,0.7735165936971482,20
19.343223870645108,0.7791224507600086,20
19.353225537589598,0.7804785646410477,20
19.36322720453409,0.7590123019219802,20
19.37322887147858,0.7541728758848081,20
19.38323053842307,0.7433079950867805,20
19.39323220536756,0.6807001436058268,20
19.403233872312054,0.630718835574028,20
19.413235539256544,0.5961726559596899,20
19.423237206201033,0.5623651238437111,20
19.433238873145523,0.504407249025751,20
19.443240540090017,0.44573820356529925,20
19.453242207034506,0.3829658724130457,20
19.463243873978996,0.33787566671753105,20
19.47324554092349,0.289718579283024,20
19.48324720786798,0.22815168057259258,20
19.49324887481247,0.20825141628339489,20
19.50325054175696,0.15075251823118985,20
19.513252208701452,0.120385539311195,20
19.523253875645942,0.08588615952199309,20
19.53325554259043,0.0724680728565305,20
19.54325720953492,0.04490488842753431,20
19.553258876479415,0.03698530926937546,20
19.563260543423905,0.012912690992398045,20
19.573262210368394,0.01031905408515434,20
19.583263877312888,-0.0182715980982491,20
19.593265544257378,-0.0024932104776274515,20
19.603267211201867,-0.008844801052812703,20
19.613268878146357,0.0003021762077571029,20
19.62327054509085,0.012769623285079995,20
19.63327221203534,-0.006799811242650058,20
19.64327387897983,-0.00795336879484044,20
19.65327554592432,-0.00489675804877375,20
19.663277212868813,-0.02360100990241419,20
19.673278879813303,-0.03789132741484832,20
19.683280546757793,-0.06468144697840861,20
19.693282213702286,-0.06700756941931899,20
19.703283880646776,-0.10720263174877549,20
19.713285547591266,-0.15217205503150305,20
19.723287214535755,-0.16106352740604454,20
19.73328888148025,-0.212799842267123,20
19.74329054842474,-0.2545911335820068,20
19.75329221536923,-0.3094789627196337,20
19.763293882313718,-0.33631501033342937,20
19.77329554925821,-0.39053490946293745,20
19.7832972162027,-0.459064403318974,20
19.79329888314719,-0.5149705618664906,20
19.803300550091684,-0.5448122252988069,20
19.813302217036174,-0.5960838410902491,20
19.823303883980664,-0.6503591463617425,20
19.833305550925154,-0.677199750597164,20
19.843307217869647,-0.7158356429041193,20
19.853308884814137,-0.7496562302108132,20
19.863310551758627,-0.7742467489166125,20
19.873312218703116,-0.8011439657964741,20
19.88331388564761,-0.7884960409651124,20
19.8933155525921,-0.7682203418438512,20
19.90331721953659,-0.7398438451282611,20
19.913318886481083,-0.7278180661920991,20
19.923320553425572,-0.6790992563143028,20
19.933322220370062,-0.6390750448023587,20
19.943323887314552,-0.5657356109748839,20
19.953325554259045,-0.5096426202444947,20
19.963327221203535,-0.42661653086944107,20
19.973328888148025,-0.35838652168665514,20
19.983330555092515,-0.2608222456069767,20
19.993332222037008,-0.18776964933649637,20
20.003333888981498,-0.09316162880645039,20
20.013335555925988,0.020663375339679334,20
20.02333722287048,0.10276439589535723,20
20.03333888981497,0.17469586393215322,20
20.04334055675946,0.28372351957287045,20
20.05334222370395,0.36720446311581145,20
20.063343890648444,0.44053001218049664,20
20.073345557592933,0.5282521380550081,20
20.083347224537423,0.5812322746892504,20
20.093348891481913,0.6358489431911575,20
20.103350558426406,0.6765341241390093,20
20.113352225370896,0.727323303591686,20
20.123353892315386,0.7654157799387903,20
20.133355559259876,0.7794410407241006,20
20.14335722620437,0.7750489071515457,20
20.15335889314886,0.7723827968918671,20
20.16336056009335,0.7587578852510933,20
20.173362227037842,0.753961087366198,20
20.18336389398233,0.7217013555305698,20
20.19336556092682,0.6792511198733492,20
20.20336722787131,0.6417046631865247,20
20.213368894815805,0.6003857197145283,20
20.223370561760294,0.565964659988104,20
20.233372228704784,0.4878404048525951,20
20.243373895649274,0.4330858380064214,20
20.253375562593767,0.3821286330511546,20
20.263377229538257,0.3458155171926118,20
20.273378896482747,0.28256820678098227,20
20.28338056342724,0.2423054314028614,20
20.29338223037173,0.18625216771448316,20
20.30338389731622,0.13992619733626221,20
20.31338556426071,0.1077378898551033,20
20.323387231205203,0.08398889277866534,20
20.333388898149693,0.07075372227742437,20
20.343390565094182,0.04233411509234454,20
20.353392232038672,0.05635370441265201,20
20.363393898983166,0.025249584850055563,20
20.373395565927655,0.005223343561201844,20
20.383397232872145,0.011944570056045859,20
20.39339889981664,-0.013368634682379919,20
20.40340056676113,0.004550556269845434,20
20.413402233705618,-0.003701722217718666,20
20.423403900650108,0.006909976070242265,20
20.4334055675946,0.011984998211658172,20
20.44340723453909,-0.01139371291020743,20
20.45340890148358,-0.008776923085555215,20
20.46341056842807,-0.017865686812993,20
20.473412235372564,-0.040944068166856765,20
20.483413902317054,-0.035506628924779,20
20.493415569261543,-0.06965886667105171,20
20.503417236206037,-0.08275396753238813,20
20.513418903150527,-0.11418075636259742,20
20.523420570095016,-0.1455837315309367,20
20.533422237039506,-0.22557218966187767,20
20.543423903984,-0.24368586099760867,20
20.55342557092849,-0.30431907670032016,20
20.56342723787298,-0.34268100815186164,20
20.57342890481747,-0.4061964720142174,20
20.583430571761962,-0.45191501871094314,20
20.593432238706452,-0.5000966884474207,20
20.60343390565094,-0.5673763928755887,20
20.613435572595435,-0.6116099396047876,20
20.623437239539925,-0.6491828096656849,20
20.633438906484415,-0.7126591459228458,20
20.643440573428904,-0.7310813332959615,20
20.653442240373398,-0.7398482493213645,20
20.663443907317887,-0.7786044258103284,20
20.673445574262377,-0.7920259736833718,20
20.683447241206867,-0.7802796595157954,20
20.69344890815136,-0.7663679910320734,20
20.70345057509585,-0.7339358025370665,20
20.71345224204034,-0.7216275725335293,20
20.723453908984833,-0.6770827624919895,20
20.733455575929323,-0.637805325533902,20
20.743457242873813,-0.5673539024892827,20
20.753458909818303,-0.5039351694072376,20
20.763460576762796,-0.4277150878081275,20
20.773462243707286,-0.3524244559615988,20
20.783463910651776,-0.2638784000203012,20
20.793465577596265,-0.1833000098503486,20
20.80346724454076,-0.08678023015080974,20
20.81346891148525,0.012084793875763458,20
20.82347057842974,0.09557784630129462,20
20.83347224537423,0.20420656183667937,20
20.84347391231872,0.26854503043889216,20
20.85347557926321,0.3816026208040016,20
20.8634772462077,0.45395061803941644,20
20.873478913152194,0.5216821147415722,20
20.883480580096684,0.5862755407083762,20
20.893482247041174,0.6356005193522262,20
20.903483913985664,0.6914200612680292,20
20.913485580930157,0.7160861569686301,20
20.923487247874647,0.7671918489812388,20
20.933488914819137,0.7706307005297648,20
20.943490581763626,0.77673285795727,20
20.95349224870812,0.7752453456202857,20
20.96349391565261,0.768604763913505,20
20.9734955825971,0.742293044415957,20
20.983497249541593,0.7207656109854323,20
20.993498916486082,0.6907218913325875,20
21.003500583430572,0.6476724707659852,20
21.013502250375062,0.6084437224828738,20
21.023503917319555,0.5511642576421698,20
21.033505584264045,0.4852570864354144,20
21.043507251208535,0.4435498928459085,20
21.053508918153025,0.38951484190512525,20
21.063510585097518,0.34221237503027263,20
21.073512252042008,0.28125077173227425,20
21.083513918986498,0.25265890461905555,20
21.09351558593099,0.19889157643772154,20
21.10351725287548,0.16108944841561953,20
21.11351891981997,0.11530560173796804,20
21.12352058676446,0.09790671641539586,20
21.133522253708954,0.07175938060974445,20
21.143523920653443,0.05134206899326929,20
21.153525587597933,0.0054953111019128455,20
21.163527254542423,0.010744385612915838,20
21.173528921486916,-0.008786011771183898,20
21.183530588431406,0.00698897404848507,20
21.193532255375896,-0.006692449379372811,20
21.20353392232039,0.003554858636914885,20
21.21353558926488,0.0061066409510211715,20
21.22353725620937,0.014595911449831255,20
21.23353892315386,0.0024191681615456564,20
21.243540590098352,0.020418627062007005,20
21.25354225704284,0.005168478721095644,20
21.26354392398733,-0.03638148830110234,20
21.27354559093182,-0.034926206575103654,20
21.283547257876315,-0.06497455392763613,20
21.293548924820804,-0.07664731958066359,20
21.303550591765294,-0.08658280216196136,20
21.313552258709787,-0.12636661238369676,20
21.323553925654277,-0.1634862454102177,20
21.333555592598767,-0.19942175030810433,20
21.343557259543257,-0.24506301435104083,20
21.35355892648775,-0.28546583957977356,20
21.36356059343224,-0.3307721064135801,20
21.37356226037673,-0.3961815769022864,20
21.38356392732122,-0.45451591947002445,20
21.393565594265713,-0.4956246486446695,20
21.403567261210203,-0.5528572814665452,20
21.413568928154692,-0.6032667418705481,20
21.423570595099186,-0.6541865081026501,20
21.433572262043675,-0.6945219284328447,20
21.443573928988165,-0.7208687800535014,20
21.453575595932655,-0.7635265702918723,20
21.46357726287715,-0.7721380610813886,20
21.473578929821638,-0.7736759037948435,20
21.483580596766128,-0.7698903725896785,20
21.493582263710618,-0.7686223772899538,20
21.50358393065511,-0.7478856506592833,20
21.5135855975996,-0.7146389025668753,20
21.52358726454409,-0.6934403776812843,20
21.533588931488584,-0.6297934409713072,20
21.543590598433074,-0.5717992048092366,20
21.553592265377564,-0.5135875744606816,20
21.563593932322053,-0.433238325166719,20
21.573595599266547,-0.3579552468707101,20
21.583597266211036,-0.2628512837972281,20
21.593598933155526,-0.1742397692243262,20
21.603600600100016,-0.07841547637625956,20
21.61360226704451,0.007011940694537373,20
21.623603933989,0.0807079958483298,20
21.63360560093349,0.2067431968989054,20
21.64360726787798,0.2803001046893954,20
21.653608934822472,0.35521527525153307,20
21.663610601766962,0.4497622955138006,20
21.67361226871145,0.524556856045722,20
21.683613935655945,0.5795649036010756,20
21.693615602600435,0.6433484736152769,20
21.703617269544925,0.690299099424851,20
21.713618936489414,0.7252916985227856,20
21.723620603433908,0.7501801821978831,20
21.733622270378397,0.7603488616591693,20
21.743623937322887,0.7783529899832293,20
21.753625604267377,0.7789853098046154,20
21.76362727121187,0.7475452107202168,20
21.77362893815636,0.7430580720190608,20
21.78363060510085,0.7123831459182486,20
21.793632272045343,0.684187942072839,20
21.803633938989833,0.6384582015998863,20
21.813635605934323,0.5924285707993097,20
21.823637272878813,0.5614264684635859,20
21.833638939823306,0.4745910866535608,20
21.843640606767796,0.4421888162466827,20
21.853642273712286,0.38901478114100935,20
21.863643940656775,0.3372256410468118,20
21.87364560760127,0.29472501611703067,20
21.88364727454576,0.23791954555650008,20
21.893648941490248,0.21131709463162388,20
21.90365060843474,0.16305761428790483,20
21.91365227537923,0.10710895680983816,20
21.92365394232372,0.0947369362490753,20
21.93365560926821,0.07475943634609526,20
21.943657276212704,0.03758505010949458,20
21.953658943157194,0.025229427393488824,20
21.963660610101684,0.04140143583409686,20
21.973662277046174,0.019432386097758207,20
21.983663943990667,0.0025560536984639117,20
21.993665610935157,0.001227135339127913,20
22.003667277879646,-0.0068481308485967484,20
22.01366894482414,0.006621651832083407,20
22.02367061176863,0.0024534093095798445,20
22.03367227871312,0.011390011214521323,20
22.04367394565761,0.007505603048983678,20
22.053675612602103,0.008655029837012426,20
22.063677279546592,-0.027824514524189204,20
22.073678946491082,-0.022160226804629556,20
22.083680613435572,-0.01984495360675673,20
22.093682280380065,-0.07067649283229585,20
22.103683947324555,-0.09451887913581562,20
22.113685614269045,-0.14270332705306146,20
22.123687281213538,-0.15856879646751154,20
22.133688948158028,-0.196717196199134,20
22.143690615102518,-0.2605664909123666,20
22.153692282047007,-0.2747286748708088,20
22.1636939489915,-0.34455168668487124,20
22.17369561593599,-0.39036180772748796,20
22.18369728288048,-0.4415643954539853,20
22.19369894982497,-0.5046331202837562,20
22.203700616769463,-0.5726219644705847,20
22.213702283713953,-0.5922056037604785,20
22.223703950658443,-0.6596268631482732,20
22.233705617602936,-0.6806388652476886,20
22.243707284547426,-0.7268827380510127,20
22.253708951491916,-0.7542815539305845,20
22.263710618436406,-0.7733959189981819,20
22.2737122853809,-0.7738657269385285,20
22.28371395232539,-0.8009857140371348,20
22.29371561926988,-0.7531481264763722,20
22.30371728621437,-0.7460595503411254,20
22.313718953158862,-0.7098975006912198,20
22.32372062010335,-0.6825576787458217,20
22.33372228704784,-0.6173239368253276,20
22.34372395399233,-0.5800744864869868,20
22.353725620936824,-0.4982576462977648,20
22.363727287881314,-0.43211805118305285,20
22.373728954825804,-0.3657434109775242,20
22.383730621770297,-0.27633681522593284,20
22.393732288714787,-0.1867777670880097,20
22.403733955659277,-0.08504545868189094,20
22.413735622603767,0.0017832313664982553,20
22.42373728954826,0.09157776782516659,20
22.43373895649275,0.1851934554244794,20
22.44374062343724,0.2804915140013688,20
22.45374229038173,0.36525250781610186,20
22.463743957326223,0.4429943716238846,20
22.473745624270713,0.5206167350718532,20
22.483747291215202,0.576158596115714,20
22.493748958159696,0.6416023398999817,20
22.503750625104185,0.6993179319813906,20
22.513752292048675,0.7196651923291251,20
22.523753958993165,0.7464934948028287,20
22.53375562593766,0.7594799316666944,20
22.543757292882148,0.7660851317320205,20
22.553758959826638,0.7849769334569777,20
22.563760626771128,0.7566258185582956,20
22.57376229371562,0.7438054951127233,20
22.58376396066011,0.7338090416234451,20
22.5937656276046,0.7148852684414448,20
22.603767294549094,0.6417441453124647,20
22.613768961493584,0.5884473707511719,20
22.623770628438074,0.5404782834250699,20
22.633772295382563,0.47719517932921474,20
22.643773962327057,0.4504059597520213,20
22.653775629271546,0.3762336429423264,20
22.663777296216036,0.34497196226620785,20
22.673778963160526,0.29679351402257786,20
22.68378063010502,0.2396007928886401,20
22.69378229704951,0.19032349140774754,20
22.703783963994,0.16775667915746412,20
22.713785630938492,0.12488615927675496,20
22.723787297882982,0.11268851136659078,20
22.733788964827472,0.05315369322022956,20
22.74379063177196,0.037221696114633926,20
22.753792298716455,0.029854076857745642,20
22.763793965660945,0.027725447044139474,20
22.773795632605434,0.0028383851672474265,20
22.783797299549924,-0.008625029797963146,20
22.793798966494418,0.002353068859383173,20
22.803800633438907,0.0036626664138493382,20
22.813802300383397,0.012723832187753428,20
22.82380396732789,-0.0020636704183730607,20
22.83380563427238,0.0037575660565245094,20
22.84380730121687,0.00685979941087932,20
22.85380896816136,0.004521357386662898,20
22.863810635105853,-0.018772119720854876,20
22.873812302050343,-0.04007235748214188,20
22.883813968994833,-0.05109459926451183,20
22.893815635939323,-0.08593142838750985,20
22.903817302883816,-0.08457827011701385,20
22.913818969828306,-0.12262457537605721,20
22.923820636772795,-0.1668338325397504,20
22.93382230371729,-0.2004117480360664,20
22.94382397066178,-0.2408771292258308,20
22.95382563760627,-0.3067730335719135,20
22.963827304550758,-0.3514834233079004,20
22.97382897149525,-0.3897663105279037,20
22.98383063843974,-0.4561447630712303,20
22.99383230538423,-0.509827165358858,20
23.00383397232872,-0.5455661690645379,20
23.013835639273214,-0.5902549438785726,20
23.023837306217704,-0.6471182279338671,20
23.033838973162194,-0.6990449571815247,20
23.043840640106687,-0.7245401859896141,20
23.053842307051177,-0.7324848853330147,20
23.063843973995667,-0.768307013142123,20
23.073845640940156,-0.7906047426849194,20
23.08384730788465,-0.7795723741502968,20
23.09384897482914,-0.7886162374027275,20
23.10385064177363,-0.7566023204960894,20
23.11385230871812,-0.7064271577258937,20
23.123853975662612,-0.6843337541985456,20
23.133855642607102,-0.6375560260052645,20
23.143857309551592,-0.5960446931574379,20
23.153858976496082,-0.5152547743938691,20
23.163860643440575,-0.4202206611071306,20
23.173862310385065,-0.34026737530826834,20
23.183863977329555,-0.281554448891542,20
23.193865644274048,-0.18889983900995105,20
23.203867311218538,-0.10157401164788862,20
23.213868978163028,-0.005988517869441715,20
23.223870645107517,0.10735462975480863,20
23.23387231205201,0.19542984054862284,20
23.2438739789965,0.28067451496290574,20
23.25387564594099,0.37077019291068464,20
23.26387731288548,0.4342367757037383,20
23.273878979829973,0.5128367855357175,20
23.283880646774463,0.5925780973242032,20
23.293882313718953,0.6407114765183797,20
23.303883980663446,0.6823488293164688,20
23.313885647607936,0.7203273888907986,20
23.323887314552426,0.7750189482689444,20
23.333888981496916,0.7742954723132848,20
23.34389064844141,0.7597561954828133,20
23.3538923153859,0.7581645197730191,20
23.36389398233039,0.7780899076414406,20
23.37389564927488,0.7609124758060962,20
23.38389731621937,0.7159561169856192,20
23.39389898316386,0.6982847046673194,20
23.40390065010835,0.6541298971791595,20
23.413902317052845,0.5922416917662577,20
23.423903983997334,0.5548679615187265,20
23.433905650941824,0.5091714066831721,20
23.443907317886314,0.46362396290544916,20
23.453908984830807,0.4025145003000426,20
23.463910651775297,0.3470579027521345,20
23.473912318719787,0.30797375977802555,20
23.483913985664277,0.25394208346319175,20
23.49391565260877,0.19504913746856262,20
23.50391731955326,0.1713986876923106,20
23.51391898649775,0.12067735089405589,20
23.523920653442243,0.08834034729044606,20
23.533922320386733,0.06304152777948364,20
23.543923987331222,0.0462339435769783,20
23.553925654275712,0.03253510498966468,20
23.563927321220206,0.02305574419671677,20
23.573928988164695,-0.009018443260998245,20
23.583930655109185,-0.017539942912547925,20
23.593932322053675,0.008513350351132081,20
23.60393398899817,0.007285819866066083,20
23.613935655942658,-0.008483483991286369,20
23.623937322887148,-0.004746514007694808,20
23.63393898983164,-0.028158394218666723,20
23.64394065677613,0.01826091826847341,20
23.65394232372062,-0.01448551550679158,20
23.66394399066511,-0.02669944510179094,20
23.673945657609604,-0.020761581101613375,20
23.683947324554094,-0.036058194061009574,20
23.693948991498583,-0.0691420017260491,20
23.703950658443073,-0.11115683469857007,20
23.713952325387567,-0.1186894875389739,20
23.723953992332056,-0.1566741150533013,20
23.733955659276546,-0.19012573053092535,20
23.74395732622104,-0.24168811677748123,20
23.75395899316553,-0.3080984578139162,20
23.76396066011002,-0.3350878563712778,20
23.77396232705451,-0.3742654086579452,20
23.783963993999002,-0.4395373892598703,20
23.793965660943492,-0.49006131521143387,20
23.80396732788798,-0.5457130007026836,20
23.81396899483247,-0.5997983618173395,20
23.823970661776965,-0.6463262518255667,20
23.833972328721455,-0.6790380193481491,20
23.843973995665944,-0.714924427120017,20
23.853975662610434,-0.7389496415756007,20
23.863977329554928,-0.782667871063318,20
23.873978996499417,-0.7778880971592916,20
23.883980663443907,-0.7684836438886168,20
23.8939823303884,-0.7654433380719696,20
23.90398399733289,-0.7531247187363102,20
23.91398566427738,-0.729286756744643,20
23.92398733122187,-0.6764964699308121,20
23.933988998166363,-0.6213799667993061,20
23.943990665110853,-0.5873244749076214,20
23.953992332055343,-0.5218223334575163,20
23.963993998999833,-0.4396501926044262,20
23.973995665944326,-0.3672787746814508,20
23.983997332888816,-0.27413548079001,20
23.993998999833305,-0.18552323820038252,20
24.0040006667778,-0.09482727219804243,20
24.01400233372229,-0.0032793304119310626,20
24.02400400066678,0.10435918731968157,20
24.034005667611268,0.1880951780385921,20
24.04400733455576,0.2807386487761957,20
24.05400900150025,0.3666522244309052,20
24.06401066844474,0.43930767441947804,20
24.07401233538923,0.5114342204051922,20
24.084014002333724,0.57597653736301,20
24.094015669278214,0.6477578055490372,20
24.104017336222704,0.6995674605550747,20
24.114019003167197,0.7344988075051609,20
24.124020670111687,0.748640280186537,20
24.134022337056177,0.7512135257054335,20
24.144024004000666,0.7801605595989477,20
24.15402567094516,0.7727781395807949,20
24.16402733788965,0.768537889660285,20
24.17402900483414,0.7488345806939429,20
24.18403067177863,0.7335790470788575,20
24.194032338723122,0.6935267720868724,20
24.204034005667612,0.6554937513954309,20
24.214035672612102,0.5982959557483348,20
24.224037339556595,0.5383691138447089,20
24.234039006501085,0.5098140216849824,20
24.244040673445575,0.4415838723827042,20
24.254042340390065,0.39009784454840507,20
24.264044007334558,0.3390295426728069,20
24.274045674279048,0.2894826446535202,20
24.284047341223538,0.27665639054512337,20
24.294049008168027,0.21422136016635893,20
24.30405067511252,0.1513508493931402,20
24.31405234205701,0.13681767593546854,20
24.3240540090015,0.0996997924125965,20
24.334055675945994,0.0704942446896322,20
24.344057342890483,0.054479046712625406,20
24.354059009834973,0.04442469799972944,20
24.364060676779463,0.01800709055376986,20
24.374062343723956,-0.0037830739824333756,20
24.384064010668446,0.006311384105863839,20
24.394065677612936,0.0030892866544448058,20
24.404067344557426,-0.00011575815126676543,20
24.41406901150192,-0.0013491504599466193,20
24.42407067844641,0.00012066550608758986,20
24.4340723453909,-0.0004214892151553451,20
24.444074012335392,-0.009370767517814958,20
24.45407567927988,-0.02159841768378837,20
24.46407734622437,-0.010614878606453187,20
24.47407901316886,-0.04668097320586929,20
24.484080680113355,-0.05802281607856423,20
24.494082347057844,-0.07144998201876471,20
24.504084014002334,-0.09090830857799032,20
24.514085680946824,-0.12042297409661361,20
24.524087347891317,-0.1599439039504239,20
24.534089014835807,-0.1819795970991302,20
24.544090681780297,-0.22526980192052712,20
24.554092348724787,-0.28655933873767747,20
24.56409401566928,-0.3450109566872502,20
24.57409568261377,-0.39695547468654746,20
24.58409734955826,-0.43999223850847075,20
24.594099016502753,-0.4880639793470981,20
24.604100683447243,-0.5542304314042193,20
24.614102350391732,-0.5963036497991369,20
24.624104017336222,-0.6277483915631628,20
24.634105684280716,-0.6816808208313503,20
24.644107351225205,-0.7248004358583472,20
24.654109018169695,-0.7410419065286579,20
24.664110685114185,-0.7761513450358661,20
24.67411235205868,-0.7766407106591363,20
24.684114019003168,-0.7746458362032309,20
24.694115685947658,-0.7823256479876262,20
24.70411735289215,-0.7481537056514361,20
24.71411901983664,-0.7442997000632128,20
24.72412068678113,-0.699651611877976,20
24.73412235372562,-0.6633761383388731,20
24.744124020670114,-0.5860226007994205,20
24.754125687614604,-0.5180010811042478,20
24.764127354559093,-0.4543059548964986,20
24.774129021503583,-0.3738595782737292,20
24.784130688448077,-0.29082723967863383,20
24.794132355392566,-0.18407368121092801,20
24.804134022337056,-0.12007379324528013,20
24.81413568928155,-0.0005597446513010869,20
24.82413735622604,0.08184637286735104,20
24.83413902317053,0.1832306189919741,20
24.84414069011502,0.25393456068835935,20
24.854142357059512,0.3353054845075804,20
24.864144024004002,0.44159642505003954,20
24.87414569094849,0.5103925090200456,20
24.88414735789298,0.571162927199762,20
24.894149024837475,0.632531827073034,20
24.904150691781965,0.6647916065564853,20
24.914152358726454,0.7190800772664023,20
24.924154025670948,0.7529593549460304,20
24.934155692615438,0.7445701057942631,20
24.944157359559927,0.7860797238914343,20
24.954159026504417,0.7895470985340114,20
24.96416069344891,0.7670090603498603,20
24.9741623603934,0.7469726007242166,20
24.98416402733789,0.7119159988718629,20
24.99416569428238,0.6839707327091457,20
25.004167361226873,0.6448382386974036,20
25.014169028171363,0.6244479397207787,20
25.024170695115853,0.5458058528396272,20
25.034172362060346,0.4868475262490213,20
25.044174029004836,0.44667478115313397,20
25.054175695949326,0.41396864453872156,20
25.064177362893815,0.35624388268485524,20
25.07417902983831,0.28950904984178166,20
25.0841806967828,0.23901085927731866,20
25.09418236372729,0.20761387216759888,20
25.104184030671778,0.169333349064986,20
25.11418569761627,0.11892373408005866,20
25.12418736456076,0.09760575730585157,20
25.13418903150525,0.08580688818478112,20
25.144190698449744,0.06474121898130511,20
25.154192365394234,0.022934377967222253,20
25.164194032338724,0.037055312405726556,20
25.174195699283214,0.00459550091743548,20
25.184197366227707,-0.01070863935534937,20
25.194199033172197,-0.003634736335925733,20
25.204200700116687,0.007904128896570613,20
25.214202367061176,0.003969861276933323,20
25.22420403400567,0.0023588669921164665,20
25.23420570095016,-0.0040692843188216525,20
25.24420736789465,0.009322589143272879,20
25.25420903483914,-0.025522038788483564,20
25.264210701783632,-0.007996853603932158,20
25.274212368728122,-0.027652133490137575,20
25.284214035672612,-0.03741443670199584,20
25.294215702617105,-0.062547281628428,20
25.304217369561595,-0.10599286713539216,20
25.314219036506085,-0.11356513227959189,20
25.324220703450575,-0.1629634130656309,20
25.334222370395068,-0.20250887806115853,20
25.344224037339558,-0.2266805809223901,20
25.354225704284048,-0.3056719970284286,20
25.364227371228537,-0.33033687294162417,20
25.37422903817303,-0.40133560222692893,20
25.38423070511752,-0.4429248886440557,20
25.39423237206201,-0.5013431360745855,20
25.404234039006504,-0.5515198172817224,20
25.414235705950993,-0.5727046847249507,20
25.424237372895483,-0.6541849113014084,20
25.434239039839973,-0.6878283079261527,20
25.444240706784466,-0.7222258488760017,20
25.454242373728956,-0.7272634729240193,20
25.464244040673446,-0.7732320933570125,20
25.474245707617936,-0.784189534141406,20
25.48424737456243,-0.7698746574253563,20
25.49424904150692,-0.7661998669281015,20
25.50425070845141,-0.7706780304479062,20
25.514252375395902,-0.7045593925710085,20
25.52425404234039,-0.6761434748179854,20
25.53425570928488,-0.6432277376609454,20
25.54425737622937,-0.592115032327823,20
25.554259043173865,-0.5530769265437657,20
25.564260710118354,-0.449065951276278,20
25.574262377062844,-0.3602750202310307,20
25.584264044007334,-0.2796620608269172,20
25.594265710951827,-0.20250115645779967,20
25.604267377896317,-0.10705937744262035,20
25.614269044840807,-0.016798449676488292,20
25.6242707117853,0.088585387904696,20
25.63427237872979,0.17117753050229353,20
25.64427404567428,0.27563305035797303,20
25.65427571261877,0.3569897544152551,20
25.664277379563263,0.442753510063386,20
25.674279046507753,0.4974288182958857,20
25.684280713452242,0.5744932512698618,20
25.694282380396732,0.6412637325966799,20
25.704284047341226,0.6802153992280231,20
25.714285714285715,0.7256199913152124,20
25.724287381230205,0.7640810395478741,20
25.7342890481747,0.7391695658275098,20
25.744290715119188,0.7650060175420943,20
25.754292382063678,0.7511179173258647,20
25.764294049008168,0.7651799161856203,20
25.77429571595266,0.7490476632825863,20
25.78429738289715,0.7144570940713221,20
25.79429904984164,0.6916185842574696,20
25.80430071678613,0.6484443195973187,20
25.814302383730624,0.6057241893850916,20
25.824304050675114,0.5540263301628341,20
25.834305717619603,0.5310075572473635,20
25.844307384564097,0.4679744072959874,20
25.854309051508586,0.3987753200331164,20
25.864310718453076,0.34541302330922424,20
25.874312385397566,0.28128323143291334,20
25.88431405234206,0.26040982863463197,20
25.89431571928655,0.17983337035985908,20
25.90431738623104,0.14935564698945888,20
25.91431905317553,0.12478379546478571,20
25.924320720120022,0.09855749361650175,20
25.934322387064512,0.0706295230059704,20
25.944324054009,0.043989886289684296,20
25.954325720953495,0.035654796122506716,20
25.964327387897985,0.01293337379853855,20
25.974329054842475,-0.003970907613068179,20
25.984330721786964,0.002065326771989139,20
25.994332388731458,0.003639878253283103,20
26.004334055675947,-0.017676934841754463,20
26.014335722620437,0.012852230699732197,20
26.024337389564927,-0.010667636362307253,20
26.03433905650942,-0.007122530099400138,20
26.04434072345391,-0.00436451912929163,20
26.0543423903984,0.005592449538660754,20
26.06434405734289,-0.014493974746633675,20
26.074345724287383,-0.02608473109253642,20
26.084347391231873,-0.04202986484788376,20
26.094349058176363,-0.07601110747016443,20
26.104350725120856,-0.09468411142364895,20
26.114352392065346,-0.13321773813643864,20
26.124354059009836,-0.16058302395411905,20
26.134355725954325,-0.1980620158101452,20
26.14435739289882,-0.25064992811353337,20
26.15435905984331,-0.2664296815951727,20
26.1643607267878,-0.3561635938495991,20
26.174362393732288,-0.36875322144831413,20
26.18436406067678,-0.4504463979698781,20
26.19436572762127,-0.49192371017239894,20
26.20436739456576,-0.5591285135052838,20
26.214369061510254,-0.5936578106560926,20
26.224370728454744,-0.6291036986324887,20
26.234372395399234,-0.6776384509714978,20
26.244374062343724,-0.726567095714621,20
26.254375729288217,-0.7184496906658631,20
26.264377396232707,-0.7641973498750766,20
26.274379063177197,-0.7886240924302614,20
26.284380730121686,-0.7727964261550471,20
26.29438239706618,-0.7578938839715377,20
26.30438406401067,-0.7618681692558585,20
26.31438573095516,-0.7360093898035309,20
26.324387397899653,-0.6979640296690475,20
26.334389064844142,-0.6211468785294313,20
26.344390731788632,-0.5899725487254465,20
26.354392398733122,-0.521760386568075,20
26.364394065677615,-0.4707850137975134,20
26.374395732622105,-0.365586458751762,20
26.384397399566595,-0.28433387879289934,20
26.394399066511085,-0.19617429675137327,20
26.404400733455578,-0.10764836751996483,20
26.414402400400068,-0.006679544651107034,20
26.424404067344557,0.07407205359300466,20
26.43440573428905,0.1700597240391947,20
26.44440740123354,0.26422730371977504,20
26.45440906817803,0.3398481400646175,20
26.46441073512252,0.429857460472012,20
26.474412402067014,0.5069627200038327,20
26.484414069011503,0.5567033103436891,20
26.494415735955993,0.6291670649133703,20
26.504417402900483,0.6937394600194303,20
26.514419069844976,0.7059360388762196,20
26.524420736789466,0.7723971798092928,20
26.534422403733956,0.7674872598889253,20
26.54442407067845,0.7715069652865267,20
26.55442573762294,0.7696577997299664,20
26.56442740456743,0.7454613636524294,20
26.57442907151192,0.7568737003317542,20
26.584430738456412,0.7288736150430339,20
26.5944324054009,0.6877339542209083,20
26.60443407234539,0.6520411761398233,20
26.61443573928988,0.5988019413150877,20
26.624437406234374,0.5617222617563123,20
26.634439073178864,0.49849792188010805,20
26.644440740123354,0.46006838060961097,20
26.654442407067847,0.412799370951825,20
26.664444074012337,0.35671634682262904,20
26.674445740956827,0.308844105747673,20
26.684447407901317,0.23946947953261583,20
26.69444907484581,0.2079530126738823,20
26.7044507417903,0.1679891301270343,20
26.71445240873479,0.10910969431315783,20
26.72445407567928,0.11941591143472513,20
26.734455742623773,0.06784108937129789,20
26.744457409568263,0.04412454123526026,20
26.754459076512752,0.015666723786725522,20
26.764460743457242,0.021464223323575636,20
26.774462410401735,0.0034500903489993887,20
26.784464077346225,-0.001465323184775073,20
26.794465744290715,-0.006521872495870239,20
26.80446741123521,-0.008761542136614967,20
26.814469078179698,-0.0012492703727541765,20
26.824470745124188,-0.0031730807522285073,20
26.834472412068678,-0.0019347197457948327,20
26.84447407901317,0.008158383154154403,20
26.85447574595766,-0.012419581607325605,20
26.86447741290215,-0.015705274117469078,20
26.87447907984664,-0.042965618801355444,20
26.884480746791134,-0.034443273552345055,20
26.894482413735624,-0.07885771880480713,20
26.904484080680113,-0.10155383187192682,20
26.914485747624607,-0.12333273858607183,20
26.924487414569096,-0.16016181576858343,20
26.934489081513586,-0.205764646811806,20
26.944490748458076,-0.23173725821913388,20
26.95449241540257,-0.3022022449960774,20
26.96449408234706,-0.33575341900908484,20
26.97449574929155,-0.38548559856355924,20
26.98449741623604,-0.43501443204193974,20
26.994499083180532,-0.49183667623506905,20
27.004500750125022,-0.5481559807896518,20
27.01450241706951,-0.5901737249725963,20
27.024504084014005,-0.6253461349249834,20
27.034505750958495,-0.6754617698240859,20
27.044507417902985,-0.7018000173835525,20
27.054509084847474,-0.7535972226843622,20
27.064510751791968,-0.7596161213840475,20
27.074512418736457,-0.8001977032891974,20
27.084514085680947,-0.7809487811823906,20
27.094515752625437,-0.7770373490172916,20
27.10451741956993,-0.7619272195726334,20
27.11451908651442,-0.7188006990099106,20
27.12452075345891,-0.7068584040834156,20
27.134522420403403,-0.6546848406286,20
27.144524087347893,-0.5969862600774406,20
27.154525754292383,-0.5291464733361635,20
27.164527421236873,-0.4614496624917793,20
27.174529088181366,-0.354636471813275,20
27.184530755125856,-0.28624452967036795,20
27.194532422070345,-0.19419680743367407,20
27.204534089014835,-0.11531233846170066,20
27.21453575595933,-0.0006371011211760771,20
27.22453742290382,0.06636302161047734,20
27.234539089848308,0.1777553702410259,20
27.2445407567928,0.25804412300152374,20
27.25454242373729,0.3355968017352444,20
27.26454409068178,0.43559955429724956,20
27.27454575762627,0.48923570787137854,20
27.284547424570764,0.5833627452580927,20
27.294549091515254,0.6406552470460384,20
27.304550758459744,0.6722906793943659,20
27.314552425404234,0.7272528285340175,20
27.324554092348727,0.7479384714472895,20
27.334555759293217,0.7624745439638883,20
27.344557426237706,0.7641073814732798,20
27.3545590931822,0.7689113677286175,20
27.36456076012669,0.7892597847066014,20
27.37456242707118,0.7635147643022696,20
27.38456409401567,0.7435045699222794,20
27.394565760960162,0.7090317104373435,20
27.404567427904652,0.6637089718117158,20
27.414569094849142,0.6057608218580932,20
27.424570761793632,0.5821668783182925,20
27.434572428738125,0.5188862761343807,20
27.444574095682615,0.4527756693258987,20
27.454575762627105,0.4094930888356581,20
27.464577429571595,0.3585222806660025,20
27.474579096516088,0.31422720647031605,20
27.484580763460578,0.250240422051244,20
27.494582430405067,0.2222139656041119,20
27.50458409734956,0.16601546640498666,20
27.51458576429405,0.1332018241125185,20
27.52458743123854,0.10259565173285165,20
27.53458909818303,0.07248083143066622,20
27.544590765127523,0.0510718346844033,20
27.554592432072013,0.036645602144788784,20
27.564594099016503,0.014168843933694804,20
27.574595765960993,0.013599107522153247,20
27.584597432905486,0.0017646529045333326,20
27.594599099849976,0.002020998947968618,20
27.604600766794466,0.008714752390639091,20
27.61460243373896,-0.0006789207394733961,20
27.62460410068345,-0.003584090167854138,20
27.63460576762794,-0.014245432601001976,20
27.64460743457243,0.016774896290079937,20
27.65460910151692,-0.014513363567159009,20
27.66461076846141,-0.01748301855960804,20
27.6746124354059,-0.024077177666553522,20
27.68461410235039,-0.04510413654140181,20
27.694615769294884,-0.06604854800983334,20
27.704617436239374,-0.08804629207544135,20
27.714619103183864,-0.1281744222717203,20
27.724620770128357,-0.16173245560563076,20
27.734622437072847,-0.21982026857595957,20
27.744624104017337,-0.23603301021902304,20
27.754625770961827,-0.2709963077388833,20
27.76462743790632,-0.33064981878034844,20
27.77462910485081,-0.38061274046197513,20
27.7846307717953,-0.43928837833763096,20
27.79463243873979,-0.5063533057153665,20
27.804634105684283,-0.5274274099559961,20
27.814635772628773,-0.5832317645213485,20
27.824637439573262,-0.6391559176068338,20
27.834639106517756,-0.6993800474404963,20
27.844640773462245,-0.7216613023890761,20
27.854642440406735,-0.7409590453114535,20
27.864644107351225,-0.7661516256414782,20
27.87464577429572,-0.7851136021632338,20
27.884647441240208,-0.775018831655476,20
27.894649108184698,-0.757156793857681,20
27.904650775129188,-0.7590102740392783,20
27.91465244207368,-0.7327292891697084,20
27.92465410901817,-0.7013901382128409,20
27.93465577596266,-0.6545039396679494,20
27.944657442907154,-0.6023992396712067,20
27.954659109851644,-0.5317133385905205,20
27.964660776796133,-0.4452359000221679,20
27.974662443740623,-0.3662323778943359,20
27.984664110685117,-0.30245375888043463,20
27.994665777629606,-0.2091812037052079,20
28.004667444574096,-0.12272394898101666,20
28.014669111518586,-0.021372625575188802,20
28.02467077846308,0.06386126254772213,20
28.03467244540757,0.16022282626818907,20
28.04467411235206,0.24561085963890886,20
28.054675779296552,0.3504900332395195,20
28.064677446241042,0.4285133429918872,20
28.07467911318553,0.5030453516561678,20
28.08468078013002,0.5590488478372697,20
28.094682447074515,0.635133305811663,20
28.104684114019005,0.6771844279055618,20
28.114685780963494,0.7120467635606642,20
28.124687447907984,0.7511775720882531,20
28.134689114852478,0.7706453779981393,20
28.144690781796967,0.7811231572983092,20
28.154692448741457,0.7700762703630188,20
28.164694115685947,0.7755364867951507,20
28.17469578263044,0.7447996546158411,20
28.18469744957493,0.7269575898260087,20
