time,ppg_signal,subject_id
0.0,-0.016366525257603196,9
0.010001666944490749,0.0833586225820312,9
0.020003333888981498,0.1817678699938386,9
0.030005000833472247,0.2623295613620525,9
0.040006667777962995,0.3295263491648649,9
0.050008334722453744,0.43127238218334557,9
0.06001000166694449,0.48964605259270716,9
0.07001166861143523,0.5592723278548906,9
0.08001333555592599,0.5981163252269274,9
0.09001500250041675,0.6640008447369152,9
0.10001666944490749,0.7061567722846644,9
0.11001833638939823,0.7262175150515892,9
0.12002000333388899,0.7652342738604085,9
0.13002167027837974,0.7611843401129406,9
0.14002333722287047,0.7710642087130409,9
0.15002500416736123,0.7731874618170077,9
0.16002667111185198,0.7631386299836198,9
0.17002833805634274,0.7486382640231652,9
0.1800300050008335,0.7339170534864277,9
0.19003167194532422,0.7101211527562148,9
0.20003333888981498,0.6562678336803259,9
0.21003500583430573,0.6175372354845798,9
0.22003667277879646,0.5635538871683246,9
0.23003833972328722,0.5244745369306517,9
0.24004000666777797,0.4899723400006175,9
0.2500416736122687,0.43151076143024536,9
0.2600433405567595,0.36427139997230396,9
0.2700450075012502,0.3272794650217768,9
0.28004667444574094,0.29487501321469184,9
0.2900483413902317,0.23963208291135307,9
0.30005000833472245,0.18624043353627942,9
0.31005167527921323,0.17157209712521457,9
0.32005334222370396,0.12261804120728804,9
0.3300550091681947,0.10398276390677798,9
0.3400566761126855,0.07867198504452362,9
0.3500583430571762,0.06310138152227067,9
0.360060010001667,0.03416877941621606,9
0.3700616769461577,0.027468148384628042,9
0.38006334389064844,0.006888098177398313,9
0.3900650108351392,0.00531203210789394,9
0.40006667777962995,-0.0001011379987097584,9
0.4100683447241207,0.002730089972571301,9
0.42007001166861146,-0.008823743704392054,9
0.4300716786131022,-0.003620280383590878,9
0.4400733455575929,0.01870130465705687,9
0.4500750125020837,0.0026126306623294217,9
0.46007667944657443,0.007301333071177113,9
0.4700783463910652,-0.009332283796667132,9
0.48008001333555594,-0.00980098934535879,9
0.49008168028004667,-0.014706994971100184,9
0.5000833472245374,-0.044123785219439896,9
0.5100850141690282,-0.05392043547180982,9
0.520086681113519,-0.10008870271871155,9
0.5300883480580096,-0.10321540713700991,9
0.5400900150025004,-0.15325883481026684,9
0.5500916819469912,-0.15928191047361978,9
0.5600933488914819,-0.2186697732732889,9
0.5700950158359727,-0.26867817045409326,9
0.5800966827804634,-0.30204428543334094,9
0.5900983497249542,-0.33654074203832857,9
0.6001000166694449,-0.39366606220376343,9
0.6101016836139357,-0.440143447753303,9
0.6201033505584265,-0.4870453632762272,9
0.6301050175029171,-0.5469947213441466,9
0.6401066844474079,-0.5800451876649566,9
0.6501083513918987,-0.6334230309378635,9
0.6601100183363894,-0.6789499637441849,9
0.6701116852808802,-0.7189472005327251,9
0.680113352225371,-0.7269114321575701,9
0.6901150191698616,-0.7462976530807279,9
0.7001166861143524,-0.7766199247195238,9
0.7101183530588432,-0.7728833675384297,9
0.720120020003334,-0.7695991766716236,9
0.7301216869478246,-0.7415532436309576,9
0.7401233538923154,-0.7481670485201332,9
0.7501250208368062,-0.7269915543516478,9
0.7601266877812969,-0.669002824589077,9
0.7701283547257877,-0.6488086768888947,9
0.7801300216702785,-0.5752230519368093,9
0.7901316886147691,-0.5302314267077057,9
0.8001333555592599,-0.4729987179392053,9
0.8101350225037507,-0.38145912583298186,9
0.8201366894482414,-0.2921951744705888,9
0.8301383563927321,-0.23893938533701112,9
0.8401400233372229,-0.1479683970137108,9
0.8501416902817136,-0.05333822561193739,9
0.8601433572262044,0.032194858514885065,9
0.8701450241706952,0.14017543322327325,9
0.8801466911151858,0.21440082630008173,9
0.8901483580596766,0.311937924495463,9
0.9001500250041674,0.3631632019984005,9
0.9101516919486582,0.45377585123647435,9
0.9201533588931489,0.5097569591199279,9
0.9301550258376396,0.5718690337181063,9
0.9401566927821304,0.630679567211541,9
0.9501583597266211,0.6902951984452811,9
0.9601600266711119,0.709436106748529,9
0.9701616936156027,0.7471134386072654,9
0.9801633605600933,0.7613132294661284,9
0.9901650275045841,0.7854997465744231,9
1.0001666944490748,0.7812809962833082,9
1.0101683613935657,0.7580481106004755,9
1.0201700283380564,0.7551527232654018,9
1.030171695282547,0.7435529141847017,9
1.040173362227038,0.711445745980154,9
1.0501750291715286,0.6856283116902121,9
1.0601766961160193,0.6089675619969337,9
1.0701783630605102,0.5937720215314612,9
1.0801800300050008,0.5521055218541616,9
1.0901816969494915,0.5078838680383695,9
1.1001833638939824,0.4651853855476619,9
1.110185030838473,0.4076361189023227,9
1.1201866977829638,0.3444790898901644,9
1.1301883647274547,0.30527470348812114,9
1.1401900316719453,0.2608918192627192,9
1.1501916986164362,0.2167674717548163,9
1.160193365560927,0.1734085200065256,9
1.1701950325054176,0.14890380185568516,9
1.1801966994499085,0.09559134619489114,9
1.1901983663943991,0.07514087698203409,9
1.2002000333388898,0.046959966199035016,9
1.2102017002833807,0.06989892715877957,9
1.2202033672278714,0.030175945061120257,9
1.230205034172362,0.02311489219998378,9
1.240206701116853,0.0055151731801080075,9
1.2502083680613436,0.016794598370698195,9
1.2602100350058343,0.0021393606429728046,9
1.2702117019503252,-0.016464189694432172,9
1.2802133688948159,-0.0026435438378658587,9
1.2902150358393065,-4.27610481050485e-05,9
1.3002167027837974,0.014006744815980769,9
1.310218369728288,-0.015516570606279222,9
1.3202200366727788,-0.017288768300791034,9
1.3302217036172697,0.004914927621050235,9
1.3402233705617603,-0.002997435989890874,9
1.350225037506251,-0.03308751426075249,9
1.360226704450742,-0.05193354942673437,9
1.3702283713952326,-0.04862170806330551,9
1.3802300383397232,-0.0994384734705673,9
1.3902317052842141,-0.11395300319965947,9
1.4002333722287048,-0.15159599917771546,9
1.4102350391731955,-0.19920680134612437,9
1.4202367061176864,-0.23455305126119824,9
1.430238373062177,-0.2829284514326169,9
1.440240040006668,-0.3256168246555288,9
1.4502417069511586,-0.3713693198005659,9
1.4602433738956493,-0.403720940589867,9
1.4702450408401402,-0.4702883844308227,9
1.4802467077846309,-0.5163725977406761,9
1.4902483747291215,-0.5525346048391391,9
1.5002500416736124,-0.616073770214919,9
1.510251708618103,-0.6388536306083237,9
1.5202533755625938,-0.6866184173869763,9
1.5302550425070847,-0.7181819301902702,9
1.5402567094515753,-0.7601396237100496,9
1.550258376396066,-0.769743564106689,9
1.560260043340557,-0.7661976825541064,9
1.5702617102850476,-0.7599010076895004,9
1.5802633772295382,-0.7824630723332392,9
1.5902650441740291,-0.770373850527641,9
1.6002667111185198,-0.7278740468358627,9
1.6102683780630105,-0.7062071596747985,9
1.6202700450075014,-0.6729315007161013,9
1.630271711951992,-0.622070814526483,9
1.6402733788964827,-0.5576891030068015,9
1.6502750458409736,-0.4927991334005036,9
1.6602767127854643,-0.42079773606573084,9
1.670278379729955,-0.3602582168168374,9
1.6802800466744459,-0.26609282119920985,9
1.6902817136189365,-0.19445331382512024,9
1.7002833805634272,-0.09998705194780251,9
1.710285047507918,-0.025042494734264665,9
1.7202867144524088,0.06492836519049995,9
1.7302883813968994,0.14447249355664543,9
1.7402900483413903,0.22944094270856294,9
1.750291715285881,0.32850338305028665,9
1.7602933822303717,0.4124311672449616,9
1.7702950491748626,0.4826924251525695,9
1.7802967161193533,0.5321726931459425,9
1.7902983830638441,0.6006879772412149,9
1.8003000500083348,0.630323026884135,9
1.8103017169528255,0.6916274657521333,9
1.8203033838973164,0.7216323347215783,9
1.830305050841807,0.7523812322337211,9
1.8403067177862977,0.7831063544691814,9
1.8503083847307886,0.7693051500692216,9
1.8603100516752793,0.7812189222430215,9
1.87031171861977,0.765036119637087,9
1.8803133855642609,0.7505990807267903,9
1.8903150525087515,0.7249280588573785,9
1.9003167194532422,0.6960761792749113,9
1.910318386397733,0.6554434691393435,9
1.9203200533422238,0.6167282416447977,9
1.9303217202867144,0.5854637736117776,9
1.9403233872312053,0.5402085543244841,9
1.950325054175696,0.5144588488522176,9
1.9603267211201867,0.43048933670229994,9
1.9703283880646776,0.38013852282195937,9
1.9803300550091683,0.3243490702823993,9
1.990331721953659,0.29062538473024246,9
2.0003333888981496,0.2292961017089188,9
2.0103350558426407,0.20388183322393866,9
2.0203367227871314,0.16737974934818758,9
2.030338389731622,0.11524512202299975,9
2.0403400566761127,0.10866285877785044,9
2.0503417236206034,0.07535358240572461,9
2.060343390565094,0.047257738465512525,9
2.070345057509585,0.03582266972406384,9
2.080346724454076,0.03394769144154076,9
2.0903483913985665,0.012024691757695122,9
2.100350058343057,-0.01311332699427641,9
2.110351725287548,0.005392315309789864,9
2.1203533922320386,0.010163448742981581,9
2.1303550591765297,-0.008831592210679992,9
2.1403567261210203,0.013457734398034736,9
2.150358393065511,-0.000912166916705573,9
2.1603600600100017,-0.0017872353913471908,9
2.1703617269544924,-0.010331138993686227,9
2.180363393898983,0.005079289463824894,9
2.190365060843474,0.005199960566380831,9
2.200366727787965,-0.03342531445405543,9
2.2103683947324555,-0.04403382324216296,9
2.220370061676946,-0.046854584102677996,9
2.230371728621437,-0.07789529395942482,9
2.2403733955659275,-0.09884114130723179,9
2.2503750625104186,-0.12961336219967234,9
2.2603767294549093,-0.17214227743612306,9
2.2703783963994,-0.21014556995707856,9
2.2803800633438907,-0.25694688125483267,9
2.2903817302883813,-0.3046319287238892,9
2.3003833972328724,-0.35249835077525304,9
2.310385064177363,-0.390529367619227,9
2.320386731121854,-0.4259221570758085,9
2.3303883980663445,-0.5012007684646853,9
2.340390065010835,-0.5347115703193069,9
2.350391731955326,-0.5884516674963743,9
2.360393398899817,-0.6285064751389637,9
2.3703950658443076,-0.647126492771717,9
2.3803967327887983,-0.697949362993483,9
2.390398399733289,-0.7312507216942228,9
2.4004000666777796,-0.7642893503278099,9
2.4104017336222703,-0.7723651197146769,9
2.4204034005667614,-0.7766835647153137,9
2.430405067511252,-0.7756236316495856,9
2.4404067344557427,-0.7624180275868542,9
2.4504084014002334,-0.7491780297759028,9
2.460410068344724,-0.7597939345471232,9
2.4704117352892148,-0.6966752328973198,9
2.480413402233706,-0.6439465640736962,9
2.4904150691781965,-0.5966800963938814,9
2.5004167361226872,-0.5378687437991267,9
2.510418403067178,-0.4594894952459932,9
2.5204200700116686,-0.386771637330371,9
2.5304217369561592,-0.3221154890629905,9
2.5404234039006504,-0.2596048677881476,9
2.550425070845141,-0.15178700950671234,9
2.5604267377896317,-0.07684112029750369,9
2.5704284047341224,0.02549486174830608,9
2.580430071678613,0.0915877921964487,9
2.590431738623104,0.1963348977692417,9
2.600433405567595,0.27072552089510094,9
2.6104350725120855,0.35315622029707583,9
2.620436739456576,0.416803880218375,9
2.630438406401067,0.5079252317335787,9
2.6404400733455575,0.5572877057387549,9
2.6504417402900486,0.6113445228940976,9
2.6604434072345393,0.6695880299207493,9
2.67044507417903,0.7063064876384886,9
2.6804467411235207,0.7418586768166056,9
2.6904484080680113,0.7644854325692414,9
2.700450075012502,0.7767023402649729,9
2.710451741956993,0.7694433651103166,9
2.720453408901484,0.7654110338250825,9
2.7304550758459745,0.783085792487844,9
2.740456742790465,0.7477361100639915,9
2.750458409734956,0.7272284328421457,9
2.7604600766794465,0.703934142961685,9
2.7704617436239376,0.6548379182458328,9
2.7804634105684283,0.6071463978639052,9
2.790465077512919,0.5766860884572387,9
2.8004667444574096,0.49500607905197636,9
2.8104684114019003,0.467776324791577,9
2.820470078346391,0.4040087445363021,9
2.830471745290882,0.3907343823676442,9
2.8404734122353728,0.32687337883851714,9
2.8504750791798634,0.28010021432936677,9
2.860476746124354,0.231163387507515,9
2.8704784130688448,0.19685130391172223,9
2.880480080013336,0.1424964614842018,9
2.8904817469578266,0.12803261284436349,9
2.9004834139023172,0.09450556146090347,9
2.910485080846808,0.06524833924487987,9
2.9204867477912986,0.06372650779126013,9
2.9304884147357892,0.041381971723385924,9
2.9404900816802804,0.021108997108811818,9
2.950491748624771,0.005698393620851134,9
2.9604934155692617,0.0065151956624655595,9
2.9704950825137524,-0.0035166279544300823,9
2.980496749458243,-0.0020914554179110745,9
2.9904984164027337,0.022215290025528446,9
3.000500083347225,0.00134247386774903,9
3.0105017502917155,0.01167808145053667,9
3.020503417236206,-0.01213008767287966,9
3.030505084180697,-0.0012895925138805032,9
3.0405067511251875,0.013406977850852923,9
3.050508418069678,-0.015454039420891446,9
3.0605100850141693,-0.023191839000780368,9
3.07051175195866,-0.04378122094268876,9
3.0805134189031507,-0.05688456191152315,9
3.0905150858476413,-0.07341776939314044,9
3.100516752792132,-0.11491904627308266,9
3.1105184197366227,-0.14943555069991332,9
3.120520086681114,-0.1891923953156016,9
3.1305217536256045,-0.2379141198311521,9
3.140523420570095,-0.2661228809207987,9
3.150525087514586,-0.31760933928572443,9
3.1605267544590765,-0.3737121354064539,9
3.170528421403567,-0.4093326686508794,9
3.1805300883480583,-0.47154718987651956,9
3.190531755292549,-0.508311874984553,9
3.2005334222370396,-0.5696131951038866,9
3.2105350891815303,-0.58651398685055,9
3.220536756126021,-0.6475967844331418,9
3.230538423070512,-0.685068961762313,9
3.2405400900150028,-0.711715174553137,9
3.2505417569594934,-0.7533437247820896,9
3.260543423903984,-0.7497994272766518,9
3.270545090848475,-0.7485298815013504,9
3.2805467577929655,-0.7710702117863641,9
3.2905484247374566,-0.7822281139508359,9
3.3005500916819472,-0.7581953800620537,9
3.310551758626438,-0.7381304890508006,9
3.3205534255709286,-0.7089454981719265,9
3.3305550925154193,-0.6735333431036025,9
3.34055675945991,-0.622930443995538,9
3.350558426404401,-0.5667182340058284,9
3.3605600933488917,-0.5034860697096015,9
3.3705617602933824,-0.4405479650505187,9
3.380563427237873,-0.36553152589027904,9
3.3905650941823637,-0.3012591713760896,9
3.4005667611268544,-0.19947475366127534,9
3.4105684280713455,-0.15348767743025987,9
3.420570095015836,-0.028667611164718554,9
3.430571761960327,0.043601072890971024,9
3.4405734289048175,0.13972623324829803,9
3.450575095849308,0.23028000368175613,9
3.460576762793799,0.31762437523665593,9
3.47057842973829,0.39114903933303796,9
3.4805800966827807,0.47295324553208085,9
3.4905817636272714,0.5303977670431654,9
3.500583430571762,0.5933500664547702,9
3.5105850975162527,0.6470087507213559,9
3.5205867644607434,0.6766749435834138,9
3.5305884314052345,0.7190151793991674,9
3.540590098349725,0.769948187485258,9
3.550591765294216,0.7767620708064411,9
3.5605934322387065,0.7847428339536857,9
3.570595099183197,0.7814471838538297,9
3.5805967661276883,0.7734435730025981,9
3.590598433072179,0.7461427191819401,9
3.6006001000166696,0.7364472391727861,9
3.6106017669611603,0.7011725018936273,9
3.620603433905651,0.6703679048923848,9
3.6306051008501417,0.6355351730334323,9
3.6406067677946328,0.5998687420113353,9
3.6506084347391234,0.5415108576068783,9
3.660610101683614,0.5032292081511618,9
3.670611768628105,0.4679408001753854,9
3.6806134355725955,0.4089755786935128,9
3.690615102517086,0.3509420924393912,9
3.7006167694615772,0.30690775312447127,9
3.710618436406068,0.2641960025568833,9
3.7206201033505586,0.21335660496273054,9
3.7306217702950493,0.18846804704353304,9
3.74062343723954,0.13027455215039593,9
3.7506251041840306,0.10629679809613801,9
3.7606267711285217,0.07088300972508282,9
3.7706284380730124,0.052113624240593924,9
3.780630105017503,0.03786112564236001,9
3.7906317719619937,0.023930445613652592,9
3.8006334389064844,0.02149857975900219,9
3.810635105850975,-0.0013081480038992302,9
3.820636772795466,-0.014708050016776116,9
3.830638439739957,-0.0038176299870920872,9
3.8406401066844476,-0.016077803885360727,9
3.8506417736289382,0.01264545892091863,9
3.860643440573429,-0.004915178573122049,9
3.87064510751792,0.008438132282543814,9
3.8806467744624107,0.013637354810956313,9
3.8906484414069014,-0.007438223977649093,9
3.900650108351392,-0.006884216433182951,9
3.9106517752958827,-0.025262068060884206,9
3.9206534422403734,-0.04136000553100446,9
3.9306551091848645,-0.06388904145788328,9
3.940656776129355,-0.08308774876295688,9
3.950658443073846,-0.09043401668632707,9
3.9606601100183365,-0.11990818768997084,9
3.970661776962827,-0.16985264004318332,9
3.980663443907318,-0.19019032438766859,9
3.990665110851809,-0.2462298952597589,9
4.000666777796299,-0.2846513849167144,9
4.01066844474079,-0.3185288995149205,9
4.020670111685281,-0.362998576297643,9
4.030671778629772,-0.4230179062764194,9
4.040673445574263,-0.4866022425493723,9
4.0506751125187535,-0.5175670064896125,9
4.060676779463244,-0.5822614973160214,9
4.070678446407735,-0.6101977366462675,9
4.0806801133522255,-0.6481248759905684,9
4.090681780296716,-0.6876669673419341,9
4.100683447241207,-0.7346693196301549,9
4.1106851141856975,-0.7413654899748741,9
4.120686781130188,-0.7743749322738618,9
4.130688448074679,-0.780318751148646,9
4.14069011501917,-0.781752558260098,9
4.150691781963661,-0.761298600214758,9
4.160693448908152,-0.7439738279278058,9
4.170695115852642,-0.7348756404532404,9
4.180696782797133,-0.7001658178546621,9
4.190698449741624,-0.6674255425388358,9
4.200700116686114,-0.6072883913354388,9
4.210701783630605,-0.537194570650873,9
4.220703450575096,-0.49515638910221144,9
4.2307051175195864,-0.4143409128989716,9
4.240706784464077,-0.33818073680169,9
4.250708451408569,-0.2532959929212267,9
4.260710118353059,-0.1798174015974469,9
4.27071178529755,-0.09346699895115938,9
4.280713452242041,-0.0044138768608129215,9
4.290715119186531,0.07715259466561387,9
4.300716786131022,0.15844081664330112,9
4.310718453075513,0.2499944647992639,9
4.320720120020003,0.32803674149254264,9
4.330721786964494,0.42616262076272743,9
4.340723453908985,0.48344870325713496,9
4.350725120853475,0.5578192565803746,9
4.360726787797966,0.6032430499667255,9
4.370728454742458,0.6604560974721282,9
4.380730121686948,0.6984381354010899,9
4.390731788631439,0.7232308246283538,9
4.40073345557593,0.752237055220743,9
4.41073512252042,0.776210001162184,9
4.420736789464911,0.7911924347893547,9
4.430738456409402,0.7837418507496804,9
4.440740123353892,0.7807570386041958,9
4.450741790298383,0.7472562072503809,9
4.460743457242874,0.7321747344570058,9
4.470745124187364,0.7080618868580913,9
4.480746791131855,0.663058383426625,9
4.490748458076347,0.6170576869683647,9
4.500750125020837,0.5899356098233808,9
4.510751791965328,0.5221488189005667,9
4.520753458909819,0.4893334023551493,9
4.530755125854309,0.43017967638337634,9
4.5407567927988,0.37426431692620216,9
4.550758459743291,0.33168816673968765,9
4.560760126687781,0.2836785659387544,9
4.570761793632272,0.22403906792412956,9
4.580763460576763,0.20303049156749123,9
4.590765127521253,0.17212679677556775,9
4.600766794465745,0.13074560178572647,9
4.6107684614102356,0.0915197662424774,9
4.620770128354726,0.075169211187309,9
4.630771795299217,0.04845639286363751,9
4.640773462243708,0.03719564252098681,9
4.650775129188198,0.03574771477116531,9
4.660776796132689,0.015411869744524053,9
4.67077846307718,0.00030961966874719707,9
4.68078013002167,0.0015800056069711953,9
4.690781796966161,0.0032506691180416263,9
4.700783463910652,-0.01570634278052164,9
4.710785130855142,0.0010449364072806745,9
4.720786797799634,-0.013385655332795737,9
4.7307884647441245,0.010333779980064833,9
4.740790131688615,-0.007098351455187132,9
4.750791798633106,-0.01633232086875415,9
4.7607934655775965,-0.019775671211725243,9
4.770795132522087,-0.017732679301637272,9
4.780796799466578,-0.026725528786903444,9
4.7907984664110685,-0.06888609837167543,9
4.800800133355559,-0.08475604789646382,9
4.81080180030005,-0.11708215943415692,9
4.820803467244541,-0.15331679508860907,9
4.830805134189032,-0.16654360375400162,9
4.840806801133523,-0.2219052423404421,9
4.8508084680780135,-0.2588119882610311,9
4.860810135022504,-0.3054065511249145,9
4.870811801966995,-0.34997127584494553,9
4.8808134689114855,-0.40074150955070065,9
4.890815135855976,-0.460792364503128,9
4.900816802800467,-0.5000290567243937,9
4.9108184697449575,-0.5498948568175192,9
4.920820136689448,-0.5771237610081398,9
4.930821803633939,-0.6363994381200727,9
4.9408234705784295,-0.6757789242053991,9
4.950825137522921,-0.7098454710505692,9
4.960826804467412,-0.757416293828653,9
4.970828471411902,-0.7622742495179357,9
4.980830138356393,-0.783455032602622,9
4.990831805300884,-0.7674554842847301,9
5.0008334722453744,-0.7677105307394475,9
5.010835139189865,-0.7687659800846118,9
5.020836806134356,-0.7523657852164328,9
5.0308384730788465,-0.7109588192553146,9
5.040840140023337,-0.6610980544351239,9
5.050841806967828,-0.6254493125996833,9
5.0608434739123185,-0.5955785969179573,9
5.07084514085681,-0.52156686354222,9
5.080846807801301,-0.45000028528394975,9
5.090848474745791,-0.37366906271036915,9
5.100850141690282,-0.30165388768340606,9
5.110851808634773,-0.23404047079669932,9
5.120853475579263,-0.11511866600035778,9
5.130855142523754,-0.04646008867020076,9
5.140856809468245,0.032684127164527156,9
5.150858476412735,0.1293570819256115,9
5.160860143357226,0.22128239076526568,9
5.170861810301717,0.2927756573639466,9
5.180863477246208,0.38674145028029594,9
5.190865144190699,0.44382547997821337,9
5.20086681113519,0.5186187966387583,9
5.21086847807968,0.5600074436450143,9
5.220870145024171,0.6370018537862846,9
5.230871811968662,0.6780456082374591,9
5.240873478913152,0.7104650411840149,9
5.250875145857643,0.7481330833127262,9
5.260876812802134,0.752095933560067,9
5.270878479746624,0.7693592475540789,9
5.280880146691115,0.7571067167104704,9
5.290881813635606,0.7703708705530034,9
5.300883480580097,0.7581637243811891,9
5.310885147524588,0.7432780059305119,9
5.320886814469079,0.7335682362089472,9
5.330888481413569,0.7024960071614024,9
5.34089014835806,0.6368139665410689,9
5.350891815302551,0.6001997003181399,9
5.360893482247041,0.553127839845133,9
5.370895149191532,0.5052609375049888,9
5.380896816136023,0.4594093515679566,9
5.390898483080513,0.381043679610357,9
5.400900150025004,0.3652268992375897,9
5.410901816969495,0.3056518658132284,9
5.420903483913986,0.2494142827562833,9
5.430905150858477,0.2133068517880748,9
5.440906817802968,0.1869546298183863,9
5.450908484747458,0.15393396272797735,9
5.460910151691949,0.11849985509662858,9
5.47091181863644,0.07838745763794461,9
5.48091348558093,0.06482672047831539,9
5.490915152525421,0.04209201161952533,9
5.500916819469912,0.03585261241583604,9
5.510918486414402,0.022414540681450996,9
5.520920153358893,0.015179215092757863,9
5.5309218203033845,0.0049323804815475355,9
5.540923487247875,0.0020864257137988597,9
5.550925154192366,0.012695613330754134,9
5.5609268211368565,0.009731898977708882,9
5.570928488081347,0.009344186748328208,9
5.580930155025838,-0.006623266741531878,9
5.590931821970329,0.007666996910383209,9
5.600933488914819,-0.008808561284000708,9
5.61093515585931,-0.001359461265162492,9
5.620936822803801,-0.027273127933666055,9
5.630938489748291,-0.016783513362927445,9
5.640940156692782,-0.04105485714868352,9
5.6509418236372735,-0.06492153015740171,9
5.660943490581764,-0.10475979120321657,9
5.670945157526255,-0.12524357000593023,9
5.6809468244707455,-0.1472908307694251,9
5.690948491415236,-0.18551263619084815,9
5.700950158359727,-0.24130713045842045,9
5.7109518253042175,-0.25677897639805897,9
5.720953492248708,-0.3291870547635502,9
5.730955159193199,-0.3699309325680568,9
5.7409568261376895,-0.41251816357009247,9
5.75095849308218,-0.45136935585939597,9
5.760960160026672,-0.5086247618283972,9
5.7709618269711624,-0.563458445432586,9
5.780963493915653,-0.6185346892748027,9
5.790965160860144,-0.6722445664607926,9
5.8009668278046345,-0.6768037866765613,9
5.810968494749125,-0.7310530931305065,9
5.820970161693616,-0.7489996016773,9
5.8309718286381065,-0.7722877137793743,9
5.840973495582597,-0.7665459960830054,9
5.850975162527088,-0.7826338499444635,9
5.8609768294715785,-0.7716672047956744,9
5.870978496416069,-0.7441752250748628,9
5.880980163360561,-0.7458007891816397,9
5.890981830305051,-0.7073389857198678,9
5.900983497249542,-0.6764253971230197,9
5.910985164194033,-0.622222727494064,9
5.920986831138523,-0.5633499852658772,9
5.930988498083014,-0.5039730779077313,9
5.940990165027505,-0.4345892230063539,9
5.950991831971995,-0.3511813860380055,9
5.960993498916486,-0.28012661321928284,9
5.970995165860977,-0.18120514466952548,9
5.9809968328054675,-0.10373372406903979,9
5.990998499749958,-0.03597794024035261,9
6.00100016669445,0.06247688950797031,9
6.01100183363894,0.13951522917615974,9
6.021003500583431,0.24951742578442204,9
6.031005167527922,0.3075998023607082,9
6.041006834472412,0.4013632726292545,9
6.051008501416903,0.4663974837272771,9
6.061010168361394,0.5363820052208738,9
6.071011835305884,0.5910411471423568,9
6.081013502250375,0.644438456102515,9
6.091015169194866,0.6881856753444718,9
6.101016836139356,0.7288213107717005,9
6.111018503083848,0.7497944298706825,9
6.121020170028339,0.7902711404208673,9
6.131021836972829,0.7627070581560937,9
6.14102350391732,0.7755126631419527,9
6.151025170861811,0.758553867200243,9
6.161026837806301,0.741678675684329,9
6.171028504750792,0.7284311937950959,9
6.181030171695283,0.7205309928199063,9
6.191031838639773,0.6687320503796148,9
6.201033505584264,0.6306805684387181,9
6.211035172528755,0.5914410662896166,9
6.221036839473245,0.5376537033347102,9
6.231038506417737,0.48914314396092023,9
6.241040173362228,0.4408711797404286,9
6.251041840306718,0.3725683481851054,9
6.261043507251209,0.33702951651440793,9
6.2710451741957,0.29802934328328773,9
6.28104684114019,0.25363467842240117,9
6.291048508084681,0.21994164206183342,9
6.301050175029172,0.16257248907909871,9
6.311051841973662,0.13347126543204202,9
6.321053508918153,0.10242732617415577,9
6.331055175862644,0.08291141098508811,9
6.341056842807134,0.056198613727544665,9
6.351058509751626,0.019885345234729918,9
6.361060176696117,0.028861222985248087,9
6.371061843640607,0.023688826802778222,9
6.381063510585098,0.012719113702235557,9
6.391065177529589,0.005927008995283662,9
6.401066844474079,0.007809460099786756,9
6.41106851141857,-0.005270938873323557,9
6.421070178363061,-0.00581655158534246,9
6.431071845307551,0.006548637296283322,9
6.441073512252042,0.001442374330134113,9
6.451075179196533,0.0028970957128277297,9
6.461076846141024,0.017080366639928485,9
6.471078513085515,-0.006974518091405582,9
6.4810801800300055,-0.022902272972403184,9
6.491081846974496,-0.05682698800799038,9
6.501083513918987,-0.06271004001686466,9
6.5110851808634775,-0.08352097802502113,9
6.521086847807968,-0.09711254802435582,9
6.531088514752459,-0.12754442271971406,9
6.54109018169695,-0.1616191949692664,9
6.55109184864144,-0.21922476094418705,9
6.561093515585931,-0.2511050327275124,9
6.571095182530422,-0.29542942486384716,9
6.581096849474913,-0.34092881822053916,9
6.591098516419404,-0.3763476556905871,9
6.6011001833638945,-0.426925497849113,9
6.611101850308385,-0.47517622808568943,9
6.621103517252876,-0.5484197433115579,9
6.6311051841973665,-0.5806845986343383,9
6.641106851141857,-0.6200991434667462,9
6.651108518086348,-0.670466056671243,9
6.6611101850308385,-0.7036669058109488,9
6.671111851975329,-0.7292624904546077,9
6.68111351891982,-0.7631146557451947,9
6.6911151858643105,-0.7599095548912227,9
6.701116852808802,-0.7734930376929767,9
6.711118519753293,-0.7680751747581092,9
6.721120186697783,-0.7622714005347576,9
6.731121853642274,-0.7588583875399887,9
6.741123520586765,-0.7220736763587136,9
6.7511251875312555,-0.6801225442549609,9
6.761126854475746,-0.6413500642451705,9
6.771128521420237,-0.5916470275955521,9
6.7811301883647275,-0.52959952326864,9
6.791131855309218,-0.4615639567934873,9
6.801133522253709,-0.38764981797838255,9
6.8111351891982,-0.3288794561482556,9
6.821136856142691,-0.24394529531413173,9
6.831138523087182,-0.15354589691913048,9
6.841140190031672,-0.07855588305144487,9
6.851141856976163,0.01115767694248803,9
6.861143523920654,0.11259758261115924,9
6.871145190865144,0.19496452228211278,9
6.881146857809635,0.2858423363020506,9
6.891148524754126,0.36623178147941027,9
6.901150191698616,0.452484441921406,9
6.911151858643107,0.505548212230526,9
6.921153525587598,0.5739219405890074,9
6.931155192532089,0.600029800711574,9
6.94115685947658,0.6680851817782238,9
6.951158526421071,0.6974589267968156,9
6.961160193365561,0.7338795875767348,9
6.971161860310052,0.7590223668215137,9
6.981163527254543,0.7710038147251007,9
6.991165194199033,0.7856714719756629,9
7.001166861143524,0.7756424714495269,9
7.011168528088015,0.770481376056621,9
7.021170195032505,0.7345569034820535,9
7.031171861976996,0.7083752237998946,9
7.041173528921487,0.6804090825606248,9
7.051175195865978,0.6411691237589291,9
7.061176862810469,0.5984983446961203,9
7.07117852975496,0.5787066331804057,9
7.08118019669945,0.5129021894708549,9
7.091181863643941,0.4576250608957616,9
7.101183530588432,0.4265273009543565,9
7.111185197532922,0.36648655393535956,9
7.121186864477413,0.30697425298220854,9
7.131188531421904,0.2783443730528776,9
7.141190198366394,0.227004431102708,9
7.151191865310885,0.18295733240755702,9
7.161193532255377,0.14737980315198046,9
7.171195199199867,0.12396411108106233,9
7.181196866144358,0.10372303248326688,9
7.191198533088849,0.05812430580092816,9
7.201200200033339,0.02965931239796198,9
7.21120186697783,0.012527412437174992,9
7.221203533922321,0.02433683480567764,9
7.231205200866811,0.01935407820325288,9
7.241206867811302,0.0018280357055797843,9
7.251208534755793,0.0007064816825330866,9
7.261210201700283,0.03004609033438714,9
7.271211868644774,0.0037919734015197516,9
7.2812135355892655,-0.014146650452120227,9
7.291215202533756,0.003903755060126769,9
7.301216869478247,-0.002595537798521497,9
7.311218536422738,0.00205958692125135,9
7.321220203367228,-0.0026952406395833193,9
7.331221870311719,-0.002609855572941768,9
7.34122353725621,-0.041104826639084886,9
7.3512252042007,-0.05518230627981699,9
7.361226871145191,-0.06452249203443346,9
7.371228538089682,-0.07917471679583218,9
7.381230205034172,-0.09893837997592428,9
7.391231871978664,-0.16632063808158934,9
7.4012335389231545,-0.19222437772390025,9
7.411235205867645,-0.21505082296764416,9
7.421236872812136,-0.2661918082171084,9
7.4312385397566265,-0.31204405331834173,9
7.441240206701117,-0.35984050801804923,9
7.451241873645608,-0.40740579360537926,9
7.4612435405900985,-0.48017887428443107,9
7.471245207534589,-0.506717000040765,9
7.48124687447908,-0.5282404261422117,9
7.4912485414235706,-0.6026651736098562,9
7.501250208368061,-0.6334415618945877,9
7.511251875312553,-0.6872572083536307,9
7.5212535422570435,-0.7171922577128733,9
7.531255209201534,-0.7296680185161366,9
7.541256876146025,-0.7645257285499781,9
7.5512585430905155,-0.7719818781902732,9
7.561260210035006,-0.7760261564299263,9
7.571261876979497,-0.7676861481153875,9
7.5812635439239875,-0.7607654713579087,9
7.591265210868478,-0.7388347273502643,9
7.601266877812969,-0.696705029010688,9
7.6112685447574595,-0.667745115049275,9
7.62127021170195,-0.6449338444776668,9
7.631271878646442,-0.5679967016479988,9
7.641273545590932,-0.518960858683473,9
7.651275212535423,-0.45705247389472303,9
7.661276879479914,-0.34220476404786354,9
7.671278546424404,-0.2960473651220521,9
7.681280213368895,-0.20438865763947808,9
7.691281880313386,-0.1306203031563189,9
7.7012835472578764,-0.029743744971908775,9
7.711285214202367,0.04518819995986737,9
7.721286881146858,0.13191458993216024,9
7.7312885480913485,0.20018359296624785,9
7.74129021503584,0.30048876193868834,9
7.751291881980331,0.36349291706132886,9
7.761293548924821,0.45768796846869236,9
7.771295215869312,0.5271657799267726,9
7.781296882813803,0.580237612894766,9
7.791298549758293,0.6349563313770514,9
7.801300216702784,0.6810568831343886,9
7.811301883647275,0.7166203874405304,9
7.821303550591765,0.7519362110332288,9
7.831305217536256,0.7466194670496201,9
7.841306884480747,0.7765294374600319,9
7.851308551425237,0.768028880298555,9
7.861310218369729,0.7682538139867859,9
7.87131188531422,0.7454633844817862,9
7.88131355225871,0.7228056358211444,9
7.891315219203201,0.7084364192250132,9
7.901316886147692,0.6617748705837312,9
7.911318553092182,0.6344500238351668,9
7.921320220036673,0.578696395900044,9
7.931321886981164,0.5442385661129892,9
7.941323553925654,0.4766788407633941,9
7.951325220870145,0.4520042637607482,9
7.961326887814636,0.39493359569845565,9
7.971328554759126,0.3586366723362597,9
7.981330221703618,0.2980030288069853,9
7.991331888648109,0.24775436036546644,9
8.001333555592598,0.22314613655900645,9
8.01133522253709,0.17062369149597498,9
8.02133688948158,0.13175924912242337,9
8.031338556426071,0.1095372827560199,9
8.041340223370563,0.08862757169457619,9
8.051341890315053,0.048324499161996735,9
8.061343557259544,0.027259856713974698,9
8.071345224204034,0.031694187881688915,9
8.081346891148526,0.014928792664620478,9
8.091348558093015,0.005836298080335919,9
8.101350225037507,-0.008355319646105903,9
8.111351891981997,0.018389819960109362,9
8.121353558926488,0.0026650520321782646,9
8.131355225870978,0.00438103095429698,9
8.14135689281547,0.013722522699350353,9
8.151358559759961,-0.0004526136014405862,9
8.161360226704451,-0.02185825363397242,9
8.171361893648942,-0.00119202239287893,9
8.181363560593432,-0.006728854402404333,9
8.191365227537924,-0.013759502767675494,9
8.201366894482414,-0.03995883740749024,9
8.211368561426905,-0.06982797092047187,9
8.221370228371395,-0.09519104970989177,9
8.231371895315887,-0.0892095999992846,9
8.241373562260376,-0.1376877311942791,9
8.251375229204868,-0.14958292258755104,9
8.261376896149358,-0.19012393700913288,9
8.27137856309385,-0.24358828605482663,9
8.28138023003834,-0.28794954084578817,9
8.29138189698283,-0.3497591577016755,9
8.301383563927322,-0.3992143198622706,9
8.311385230871812,-0.42811884640048975,9
8.321386897816303,-0.4625578959469892,9
8.331388564760793,-0.5328910919149917,9
8.341390231705285,-0.5654606054122159,9
8.351391898649775,-0.6266747557191162,9
8.361393565594266,-0.6407243986766286,9
8.371395232538756,-0.6985592969514982,9
8.381396899483248,-0.7275653611990442,9
8.391398566427739,-0.74623295044155,9
8.401400233372229,-0.7652584158903337,9
8.41140190031672,-0.7776259252494457,9
8.42140356726121,-0.775763438741681,9
8.431405234205702,-0.7712387119341085,9
8.441406901150192,-0.7636605964903502,9
8.451408568094683,-0.7213287515429341,9
8.461410235039173,-0.7105506928000014,9
8.471411901983664,-0.6618513353246855,9
8.481413568928154,-0.6090732400418738,9
8.491415235872646,-0.5572554089286199,9
8.501416902817137,-0.4768326204693929,9
8.511418569761627,-0.4129413124160041,9
8.521420236706119,-0.33936040153264524,9
8.531421903650608,-0.25916650838504424,9
8.5414235705951,-0.16366248941882888,9
8.55142523753959,-0.08981762733788175,9
8.561426904484081,-0.001857923067843845,9
8.571428571428571,0.08796574346050315,9
8.581430238373063,0.1774730728251135,9
8.591431905317553,0.2584269073301221,9
8.601433572262044,0.3268609438246557,9
8.611435239206534,0.4115923136448611,9
8.621436906151025,0.4992116031986149,9
8.631438573095517,0.559295938871939,9
8.641440240040007,0.6041897769302156,9
8.651441906984498,0.6726117178274039,9
8.661443573928988,0.7159621661770785,9
8.67144524087348,0.7299337501244648,9
8.68144690781797,0.7550193752198376,9
8.691448574762461,0.7691651364265559,9
8.70145024170695,0.7719374722359101,9
8.711451908651442,0.7745708627381371,9
8.721453575595932,0.7625237532721456,9
8.731455242540424,0.7458552251425667,9
8.741456909484915,0.7237061968832637,9
8.751458576429405,0.69497412316934,9
8.761460243373897,0.6499945261381503,9
8.771461910318386,0.6166230500160159,9
8.781463577262878,0.5837220549172174,9
8.791465244207368,0.5385429028141261,9
8.80146691115186,0.47288168035071904,9
8.811468578096349,0.42253658121516624,9
8.82147024504084,0.3727672162885729,9
8.83147191198533,0.32384875765348103,9
8.841473578929822,0.2748666890703384,9
8.851475245874314,0.2580658047157408,9
8.861476912818803,0.20268823081388926,9
8.871478579763295,0.16400870588532973,9
8.881480246707785,0.1260641869921931,9
8.891481913652276,0.10681434584124529,9
8.901483580596766,0.05266282389272655,9
8.911485247541258,0.06083125197615,9
8.921486914485747,0.028602696793189244,9
8.931488581430239,0.009712124581182376,9
8.941490248374729,0.012102160574013353,9
8.95149191531922,0.009094661888429617,9
8.96149358226371,-0.00046924770838787907,9
8.971495249208202,0.008481867676198,9
8.981496916152693,-0.0063622404771030835,9
8.991498583097183,0.002673845964403125,9
9.001500250041675,-0.0011639104350062916,9
9.011501916986164,-0.005274234580032486,9
9.021503583930656,-0.007733823324597825,9
9.031505250875146,0.0040941871626975195,9
9.041506917819637,-0.019129613188247067,9
9.051508584764127,-0.03335887688594291,9
9.061510251708619,-0.04819851667936778,9
9.071511918653108,-0.07167862918832738,9
9.0815135855976,-0.07799912501716555,9
9.091515252542091,-0.11678350669790465,9
9.101516919486581,-0.13631423541092377,9
9.111518586431073,-0.18750265272731814,9
9.121520253375563,-0.2202521642622469,9
9.131521920320054,-0.2634120059701955,9
9.141523587264544,-0.2940312368674553,9
9.151525254209036,-0.35282668494127095,9
9.161526921153525,-0.40223226679024715,9
9.171528588098017,-0.4444118804382785,9
9.181530255042507,-0.4994172815088445,9
9.191531921986998,-0.5362224161850316,9
9.20153358893149,-0.5886891460984379,9
9.21153525587598,-0.6058436943010559,9
9.221536922820471,-0.6698208065098237,9
9.231538589764961,-0.7297460874046492,9
9.241540256709452,-0.7342863299072063,9
9.251541923653942,-0.7861597104268414,9
9.261543590598434,-0.7894823130335473,9
9.271545257542924,-0.7870687675253054,9
9.281546924487415,-0.7734623053830592,9
9.291548591431905,-0.7627322846583837,9
9.301550258376396,-0.7540625109776816,9
9.311551925320888,-0.715504053610748,9
9.321553592265378,-0.6677506405328313,9
9.33155525920987,-0.6428571774438849,9
9.34155692615436,-0.5860734515001778,9
9.35155859309885,-0.5236603527962548,9
9.36156026004334,-0.4522081136179918,9
9.371561926987832,-0.38336828713754484,9
9.381563593932322,-0.29639024044363654,9
9.391565260876813,-0.23255718216158988,9
9.401566927821303,-0.1227240417247809,9
9.411568594765795,-0.04385147919774124,9
9.421570261710285,0.05357825804599064,9
9.431571928654776,0.12435141229284691,9
9.441573595599268,0.2237715489882767,9
9.451575262543757,0.2946035138752671,9
9.461576929488249,0.3658954660784358,9
9.471578596432739,0.4587745404525835,9
9.48158026337723,0.5067909778206708,9
9.49158193032172,0.577184069197715,9
9.501583597266212,0.6428350609234343,9
9.511585264210701,0.6651439126938335,9
9.521586931155193,0.7256075817991515,9
9.531588598099683,0.7311940383958198,9
9.541590265044174,0.7840055474434311,9
9.551591931988666,0.7783689474128824,9
9.561593598933156,0.776946699611666,9
9.571595265877647,0.772946033763315,9
9.581596932822137,0.7718779180812566,9
9.591598599766629,0.739691753317914,9
9.601600266711118,0.722951053364017,9
9.61160193365561,0.6873082921042184,9
9.6216036006001,0.6424132648369599,9
9.631605267544591,0.5847901619590684,9
9.641606934489081,0.551169994205622,9
9.651608601433573,0.49021849175402377,9
9.661610268378064,0.4313409593705369,9
9.671611935322554,0.40577734219762046,9
9.681613602267046,0.36452544128217,9
9.691615269211535,0.2793029803450639,9
9.701616936156027,0.27121961059584426,9
9.711618603100517,0.22509594855471143,9
9.721620270045008,0.1845127034937174,9
9.731621936989498,0.15018647384160683,9
9.74162360393399,0.12407888444492048,9
9.75162527087848,0.10115408954708062,9
9.761626937822971,0.053665294545914,9
9.77162860476746,0.036099268407202165,9
9.781630271711952,0.016690070527195747,9
9.791631938656444,0.008790249787106264,9
9.801633605600934,-0.0027051842814920634,9
9.811635272545425,-0.005892623484817708,9
9.821636939489915,0.005991511133092746,9
9.831638606434407,0.0018710159397662173,9
9.841640273378896,-0.01056144567368394,9
9.851641940323388,-0.022220378328870454,9
9.861643607267878,-0.020324686547571046,9
9.87164527421237,-0.01566601479903493,9
9.881646941156859,0.0005107759319545749,9
9.89164860810135,0.009129223404093674,9
9.901650275045842,-0.00712964084782986,9
9.911651941990332,-0.02498318351281438,9
9.921653608934824,-0.04271456741978709,9
9.931655275879313,-0.06855657747981027,9
9.941656942823805,-0.08470394302960021,9
9.951658609768295,-0.10400006306470364,9
9.961660276712786,-0.1624913989025279,9
9.971661943657276,-0.18311976313726996,9
9.981663610601768,-0.24039279769276337,9
9.991665277546257,-0.26858946353035246,9
10.001666944490749,-0.3251324408966849,9
10.01166861143524,-0.3564683121809119,9
10.02167027837973,-0.4039282933050347,9
10.031671945324222,-0.47285032510686714,9
10.041673612268712,-0.5066202661294398,9
10.051675279213203,-0.5436733547548525,9
10.061676946157693,-0.6178603940464282,9
10.071678613102184,-0.6354270278152708,9
10.081680280046674,-0.6618905262425129,9
10.091681946991166,-0.7180384987285985,9
10.101683613935656,-0.7467899174850557,9
10.111685280880147,-0.7537647802445624,9
10.121686947824637,-0.7867759563973156,9
10.131688614769129,-0.7818139519558859,9
10.14169028171362,-0.7852636311710929,9
10.15169194865811,-0.7590569107065848,9
10.161693615602601,-0.7365912361420554,9
10.171695282547091,-0.6960262924513668,9
10.181696949491583,-0.6717963995841729,9
10.191698616436073,-0.6173471561825845,9
10.201700283380564,-0.5659787239873756,9
10.211701950325054,-0.49397625386523275,9
10.221703617269545,-0.42981507111216716,9
10.231705284214035,-0.37194079344562236,9
10.241706951158527,-0.25728399787010225,9
10.251708618103018,-0.18998861531737676,9
10.261710285047508,-0.12478751580321053,9
10.271711951992,-0.021990295827831713,9
10.28171361893649,0.06723433427395556,9
10.291715285880981,0.15883335913719562,9
10.30171695282547,0.23198706630758106,9
10.311718619769962,0.3253916904089211,9
10.321720286714452,0.4102069293121086,9
10.331721953658944,0.49154162372467736,9
10.341723620603434,0.5428833079333651,9
10.351725287547925,0.6023222990927538,9
10.361726954492417,0.6528829244497529,9
10.371728621436906,0.7035961571859692,9
10.381730288381398,0.7338875754151912,9
10.391731955325888,0.735247251718028,9
10.40173362227038,0.7806362005966305,9
10.41173528921487,0.7779228754942675,9
10.42173695615936,0.7838542254673536,9
10.43173862310385,0.7782305869936762,9
10.441740290048342,0.7631971754483717,9
10.451741956992832,0.7218101799015777,9
10.461743623937323,0.6957158299391204,9
10.471745290881813,0.6653098838086787,9
10.481746957826305,0.6274143102716587,9
10.491748624770796,0.5884581027325914,9
10.501750291715286,0.5394045188671223,9
10.511751958659778,0.476519186423466,9
10.521753625604267,0.4401478824636421,9
10.531755292548759,0.3883516294076128,9
10.541756959493249,0.33544468969790103,9
10.55175862643774,0.299582120848396,9
10.56176029338223,0.26743906059347977,9
10.571761960326722,0.21094336744610878,9
10.581763627271211,0.16477964487846822,9
10.591765294215703,0.11907816956074149,9
10.601766961160195,0.09018815281654792,9
10.611768628104684,0.08473517642922362,9
10.621770295049176,0.06361521932903569,9
10.631771961993666,0.05015452649880879,9
10.641773628938157,0.02397167056421289,9
10.651775295882647,0.019858067881244716,9
10.661776962827139,-0.006655481331853881,9
10.671778629771628,-0.0030392473985121054,9
10.68178029671612,-0.003925586053103509,9
10.69178196366061,0.0006270628519184394,9
10.701783630605101,-0.00558208992951997,9
10.711785297549593,-0.009599040853935868,9
10.721786964494083,-0.007164412943141466,9
10.731788631438574,-0.00019923336802953225,9
10.741790298383064,-0.010918717400183955,9
10.751791965327556,-0.0020269015265853146,9
10.761793632272045,-0.017564924629335066,9
10.771795299216537,-0.01939846747482045,9
10.781796966161027,-0.06126049433194832,9
10.791798633105518,-0.060535679568792494,9
10.801800300050008,-0.10773427980790524,9
10.8118019669945,-0.15539484321948757,9
10.82180363393899,-0.1757260273213276,9
10.831805300883481,-0.22906925344215057,9
10.841806967827972,-0.23945832989004898,9
10.851808634772462,-0.2837839835634293,9
10.861810301716954,-0.3170700292062946,9
10.871811968661444,-0.38257389764343036,9
10.881813635605935,-0.45086948769414725,9
10.891815302550425,-0.48040895182532234,9
10.901816969494917,-0.5544184126861293,9
10.911818636439406,-0.5795504573404989,9
10.921820303383898,-0.6447998813270129,9
10.931821970328388,-0.660416519035439,9
10.94182363727288,-0.7180805858147581,9
10.95182530421737,-0.7191021823405959,9
10.96182697116186,-0.7591539037375008,9
10.971828638106352,-0.7805521561040624,9
10.981830305050842,-0.7746357883330098,9
10.991831971995333,-0.7601203515764658,9
11.001833638939823,-0.7664883241991715,9
11.011835305884315,-0.753614910280887,9
11.021836972828805,-0.738943175323918,9
11.031838639773296,-0.6805859494269573,9
11.041840306717786,-0.6420687302868113,9
11.051841973662277,-0.6139100916027304,9
11.061843640606769,-0.5367214952292486,9
11.071845307551259,-0.4749267118001589,9
11.08184697449575,-0.3987783517779611,9
11.09184864144024,-0.31121470869330087,9
11.101850308384732,-0.2336242014681291,9
11.111851975329222,-0.1748697711018768,9
11.121853642273713,-0.07279601034467284,9
11.131855309218203,0.024601520852211952,9
11.141856976162694,0.11128246752200427,9
11.151858643107184,0.19397478491703335,9
11.161860310051676,0.2807647848003238,9
11.171861976996166,0.34924545107213073,9
11.181863643940657,0.4341127088402318,9
11.191865310885149,0.5149277948824876,9
11.201866977829638,0.5546831370566115,9
11.21186864477413,0.6099988222952348,9
11.22187031171862,0.6780675064688252,9
11.231871978663111,0.7097214459323613,9
11.241873645607601,0.74706927787471,9
11.251875312552093,0.7651547574847711,9
11.261876979496583,0.7870332578154599,9
11.271878646441074,0.7652520425650217,9
11.281880313385564,0.774684285050888,9
11.291881980330055,0.7696498516491214,9
11.301883647274547,0.7169242566413733,9
11.311885314219037,0.69968207672667,9
11.321886981163528,0.6790045065675082,9
11.331888648108018,0.6642108738687038,9
11.34189031505251,0.6146032057436116,9
11.351891981997,0.5717399828866392,9
11.361893648941491,0.51043400058607,9
11.37189531588598,0.4549541769567067,9
11.381896982830472,0.4089823687863009,9
11.391898649774962,0.38164625754136344,9
11.401900316719454,0.3197798457704098,9
11.411901983663945,0.27759517803594935,9
11.421903650608435,0.23166521267670914,9
11.431905317552927,0.18160151010366646,9
11.441906984497416,0.14572414478718637,9
11.451908651441908,0.12031546574297029,9
11.461910318386398,0.08120486235574112,9
11.47191198533089,0.07384568771291919,9
11.481913652275379,0.05444273116404923,9
11.49191531921987,0.03623809709430797,9
11.50191698616436,0.011530920166087909,9
11.511918653108852,0.013339788004461069,9
11.521920320053344,0.011514461456614479,9
11.531921986997833,0.0013539411632572463,9
11.541923653942325,0.004981622128197679,9
11.551925320886815,-0.0007433985964213713,9
11.561926987831306,-0.004827658960865726,9
11.571928654775796,-0.012726505212280786,9
11.581930321720288,0.009958357080985351,9
11.591931988664777,-0.012645346783763134,9
11.601933655609269,-0.0007088819127006336,9
11.611935322553759,-0.030179847158016623,9
11.62193698949825,-0.02788206510590626,9
11.63193865644274,-0.048704177183478935,9
11.641940323387232,-0.08080905750027809,9
11.651941990331723,-0.09465019377919145,9
11.661943657276213,-0.1257851355125214,9
11.671945324220705,-0.132413134605005,9
11.681946991165194,-0.19227982538210953,9
11.691948658109686,-0.23864754516011422,9
11.701950325054176,-0.27217089620831564,9
11.711951991998667,-0.3078529041361757,9
11.721953658943157,-0.3713800755299613,9
11.731955325887649,-0.4016156459781675,9
11.741956992832138,-0.4476301166985459,9
11.75195865977663,-0.5153934666102056,9
11.761960326721121,-0.5728772985552505,9
11.771961993665611,-0.6131544077383725,9
11.781963660610103,-0.6411655301739013,9
11.791965327554593,-0.6891414743562497,9
11.801966994499084,-0.7113255789736953,9
11.811968661443574,-0.726990888194245,9
11.821970328388065,-0.7690066763014667,9
11.831971995332555,-0.7719828085905686,9
11.841973662277047,-0.7928569251475386,9
11.851975329221537,-0.7666267763403118,9
11.861976996166028,-0.7813171386366309,9
11.87197866311052,-0.7512127611277838,9
11.88198033005501,-0.7067594769348032,9
11.891981996999501,-0.6827209823034169,9
11.90198366394399,-0.6464683140627385,9
11.911985330888482,-0.5786717491532859,9
11.921986997832972,-0.5092119598660265,9
11.931988664777464,-0.4406443185722254,9
11.941990331721954,-0.37571675914119695,9
11.951991998666445,-0.3042174101503186,9
11.961993665610935,-0.20984834731345514,9
11.971995332555426,-0.11394700520437245,9
11.981996999499916,-0.03628119237698101,9
11.991998666444408,0.05536387226510048,9
12.0020003333889,0.1540814273126707,9
12.01200200033339,0.24722253236427988,9
12.02200366727788,0.3122613220300852,9
12.03200533422237,0.38390125799684466,9
12.042007001166862,0.449357570597753,9
12.052008668111352,0.5062547015013936,9
12.062010335055843,0.5960645982634669,9
12.072012002000333,0.6469894633504033,9
12.082013668944825,0.6953707447716257,9
12.092015335889315,0.7125932482949494,9
12.102017002833806,0.7541434694625025,9
12.112018669778298,0.7707501383829908,9
12.122020336722787,0.7774256876389661,9
12.132022003667279,0.770831732883765,9
12.142023670611769,0.7637260004257036,9
12.15202533755626,0.7490207694982454,9
12.16202700450075,0.7407356514262019,9
12.172028671445242,0.7068144178484668,9
12.182030338389731,0.6609378523280387,9
12.192032005334223,0.6393898492966449,9
12.202033672278713,0.5925455252910931,9
12.212035339223204,0.5384522869460988,9
12.222037006167696,0.5029069656742614,9
12.232038673112186,0.4557620458721362,9
12.242040340056677,0.38543153169120115,9
12.252042007001167,0.3570812219832445,9
12.262043673945659,0.28737141370856933,9
12.272045340890148,0.2450354276742198,9
12.28204700783464,0.23103337331214938,9
12.29204867477913,0.17752016334628906,9
12.302050341723621,0.13792728069479493,9
12.312052008668111,0.12343331428194228,9
12.322053675612603,0.08041355863144903,9
12.332055342557092,0.04416829325572413,9
12.342057009501584,0.02945434508082579,9
12.352058676446076,0.029201460555436667,9
12.362060343390565,0.015600553574903609,9
12.372062010335057,0.005502325723546738,9
12.382063677279547,0.0003407821094979502,9
12.392065344224038,0.023671668606770613,9
12.402067011168528,-0.008950061297953489,9
12.41206867811302,0.010314574214111716,9
12.42207034505751,-0.006361953095528628,9
12.432072012002001,0.01001550202020239,9
12.44207367894649,-0.014819717122252168,9
12.452075345890982,-0.0057654940669037685,9
12.462077012835474,0.0005089626291973712,9
12.472078679779964,-0.007827880120459235,9
12.482080346724455,-0.042027972013083524,9
12.492082013668945,-0.04015905453605225,9
12.502083680613437,-0.07541158484414716,9
12.512085347557926,-0.1104409227653458,9
12.522087014502418,-0.1392866557159115,9
12.532088681446908,-0.13917439818498775,9
12.5420903483914,-0.21023903749208928,9
12.552092015335889,-0.24785063052194742,9
12.56209368228038,-0.27873682659162335,9
12.572095349224872,-0.34054751361871677,9
12.582097016169362,-0.39371111327000596,9
12.592098683113853,-0.42568833702988973,9
12.602100350058343,-0.482713897828098,9
12.612102017002835,-0.514005310012168,9
12.622103683947325,-0.5764629560755339,9
12.632105350891816,-0.6010282571003133,9
12.642107017836306,-0.66707885426348,9
12.652108684780798,-0.7098236706206204,9
12.662110351725287,-0.7232518549524475,9
12.672112018669779,-0.7473340792806318,9
12.682113685614269,-0.758781099571259,9
12.69211535255876,-0.7732994721961363,9
12.702117019503252,-0.7692197803370403,9
12.712118686447742,-0.7785186724903028,9
12.722120353392233,-0.7669162738249018,9
12.732122020336723,-0.7305748376646659,9
12.742123687281214,-0.7043038683658466,9
12.752125354225704,-0.6637794818940087,9
12.762127021170196,-0.6113867624552545,9
12.772128688114686,-0.5567562418439099,9
12.782130355059177,-0.4750050150177742,9
12.792132022003667,-0.4100476195987846,9
12.802133688948159,-0.3532362137911179,9
12.81213535589265,-0.2701484929757919,9
12.82213702283714,-0.1714000699239057,9
12.832138689781631,-0.08804261818200002,9
12.842140356726121,0.004613493889494681,9
12.852142023670613,0.09604623734553912,9
12.862143690615103,0.17229556858269526,9
12.872145357559594,0.27841394808890113,9
12.882147024504084,0.34063425498611366,9
12.892148691448575,0.42276002832832416,9
12.902150358393065,0.48558480189987235,9
12.912152025337557,0.5612149033045366,9
12.922153692282048,0.6142055831342866,9
12.932155359226538,0.6503379854019996,9
12.94215702617103,0.6928515284653239,9
12.95215869311552,0.7234446450594544,9
12.962160360060011,0.784370411231303,9
12.9721620270045,0.7701371450596372,9
12.982163693948992,0.7827815206008604,9
12.992165360893482,0.8015555426011813,9
13.002167027837974,0.7631133818756687,9
13.012168694782464,0.7502078122516956,9
13.022170361726955,0.7407720537933268,9
13.032172028671445,0.685720712710675,9
13.042173695615936,0.6591740945477457,9
13.052175362560428,0.6001211113791327,9
13.062177029504918,0.5646397867908034,9
13.07217869644941,0.5271103117504122,9
13.0821803633939,0.4811367272075456,9
13.09218203033839,0.43354861094669633,9
13.10218369728288,0.3767004541337211,9
13.112185364227372,0.3158874241145723,9
13.122187031171862,0.2684009884207449,9
13.132188698116353,0.24595450182062967,9
13.142190365060843,0.20364184179643738,9
13.152192032005335,0.14743741340142158,9
13.162193698949826,0.13677548919624788,9
13.172195365894316,0.11782880148775413,9
13.182197032838808,0.07617041120357886,9
13.192198699783297,0.047999866101269356,9
13.202200366727789,0.025076534316931992,9
13.212202033672279,0.026322474541682378,9
13.22220370061677,-0.0002915857700576379,9
13.23220536756126,0.023748010356777823,9
13.242207034505752,0.008618889150082631,9
13.252208701450241,0.002161738915032722,9
13.262210368394733,-0.007798567618557637,9
13.272212035339225,0.0033972323015551923,9
13.282213702283714,-0.006894903533906663,9
13.292215369228206,0.011437099088437137,9
13.302217036172696,-0.019488412196702956,9
13.312218703117187,-0.01832354124111661,9
13.322220370061677,-0.009077793348006607,9
13.332222037006169,-0.03221490342027987,9
13.342223703950658,-0.04609923823514058,9
13.35222537089515,-0.06801144689645361,9
13.36222703783964,-0.08909655810732792,9
13.372228704784131,-0.1071137711589182,9
13.382230371728621,-0.12978922040633034,9
13.392232038673113,-0.20037341326473893,9
13.402233705617604,-0.21745208443369568,9
13.412235372562094,-0.24545321754179592,9
13.422237039506586,-0.2913598912087332,9
13.432238706451075,-0.35592056161867075,9
13.442240373395567,-0.3950425793617885,9
13.452242040340057,-0.4613950700878272,9
13.462243707284548,-0.49595686176746456,9
13.472245374229038,-0.5477867955821203,9
13.48224704117353,-0.5903678968389089,9
13.49224870811802,-0.6379049842699311,9
13.502250375062511,-0.6826684053359031,9
13.512252042007002,-0.7166261746864018,9
13.522253708951492,-0.7277400797419618,9
13.532255375895984,-0.7486962595787827,9
13.542257042840474,-0.7671816677933824,9
13.552258709784965,-0.7804616548478811,9
13.562260376729455,-0.7850280064120239,9
13.572262043673947,-0.7699467844472615,9
13.582263710618436,-0.7544003857717086,9
13.592265377562928,-0.725864097105308,9
13.602267044507418,-0.6735919912785242,9
13.61226871145191,-0.6494703133724967,9
13.6222703783964,-0.5769322485548862,9
13.63227204534089,-0.520995963010146,9
13.642273712285382,-0.4378655524858735,9
13.652275379229872,-0.38592416899354354,9
13.662277046174363,-0.29309842527184965,9
13.672278713118853,-0.21300863235544965,9
13.682280380063345,-0.1341756070511543,9
13.692282047007835,-0.05890199531418057,9
13.702283713952326,0.04621194176819444,9
13.712285380896816,0.12376279946961395,9
13.722287047841307,0.18492390455456453,9
13.732288714785797,0.3009966149512997,9
13.742290381730289,0.38240814183877986,9
13.75229204867478,0.4629518987062861,9
13.76229371561927,0.5145122575162249,9
13.772295382563762,0.5700692761287368,9
13.782297049508252,0.6345275485546964,9
13.792298716452743,0.6676550563635965,9
13.802300383397233,0.7123932030884784,9
13.812302050341724,0.7389502564646917,9
13.822303717286214,0.7606746282238872,9
13.832305384230706,0.7881861449157255,9
13.842307051175196,0.7772643259428893,9
13.852308718119687,0.756606370455507,9
13.862310385064179,0.7727288395120506,9
13.872312052008668,0.7460421522278256,9
13.88231371895316,0.7187637542982552,9
13.89231538589765,0.6777383547935346,9
13.902317052842141,0.6352681163342443,9
13.912318719786631,0.616684470474276,9
13.922320386731123,0.558368180448102,9
13.932322053675612,0.5118978156237229,9
13.942323720620104,0.46961389764612316,9
13.952325387564594,0.40303147464634165,9
13.962327054509085,0.3669880245106666,9
13.972328721453577,0.32443702953131975,9
13.982330388398067,0.2611098491649594,9
13.992332055342558,0.23687634211430822,9
14.002333722287048,0.18445656230054883,9
14.01233538923154,0.14525302445831603,9
14.02233705617603,0.10941485706059793,9
14.032338723120521,0.08493635211559669,9
14.04234039006501,0.06865828488958457,9
14.052342057009502,0.048601195105983715,9
14.062343723953992,0.02891039658812912,9
14.072345390898484,0.01639522755692338,9
14.082347057842973,-0.005818445448501167,9
14.092348724787465,0.003215443690110266,9
14.102350391731957,-0.010642696450538534,9
14.112352058676446,-0.013388027943657203,9
14.122353725620938,0.004804258265168331,9
14.132355392565428,-0.02129805983334134,9
14.14235705950992,-0.0025278701096355036,9
14.152358726454409,0.00276407150264013,9
14.1623603933989,-0.008094488309227859,9
14.17236206034339,-0.025657443121594632,9
14.182363727287882,-0.02696560322295058,9
14.192365394232372,-0.031217544117294632,9
14.202367061176863,-0.034869810522901994,9
14.212368728121355,-0.09086546583723638,9
14.222370395065845,-0.07333071800941117,9
14.232372062010336,-0.10839713603888392,9
14.242373728954826,-0.15377548686031448,9
14.252375395899318,-0.20439862926697125,9
14.262377062843807,-0.2277371735890763,9
14.272378729788299,-0.28141500470110165,9
14.282380396732789,-0.31340768876192493,9
14.29238206367728,-0.371207446968532,9
14.30238373062177,-0.4220621045475163,9
14.312385397566262,-0.48468987723807255,9
14.322387064510753,-0.4988439627633682,9
14.332388731455243,-0.5460204339496935,9
14.342390398399735,-0.6047470624897451,9
14.352392065344224,-0.6625112522471798,9
14.362393732288716,-0.70119343897166,9
14.372395399233206,-0.7242302807436583,9
14.382397066177697,-0.7317830963377505,9
14.392398733122187,-0.7652358948502075,9
14.402400400066679,-0.778072342127375,9
14.412402067011168,-0.7986580859152719,9
14.42240373395566,-0.7850810711496392,9
14.432405400900151,-0.759782485481639,9
14.442407067844641,-0.7372961447683761,9
14.452408734789133,-0.7153105753023103,9
14.462410401733623,-0.6704654849496153,9
14.472412068678114,-0.6074828858291086,9
14.482413735622604,-0.5741533379125617,9
14.492415402567095,-0.5007635090988269,9
14.502417069511585,-0.4333185278836497,9
14.512418736456077,-0.3462162625017394,9
14.522420403400567,-0.2790741505398959,9
14.532422070345058,-0.20312418830161336,9
14.542423737289548,-0.09979811535636,9
14.55242540423404,-0.007321744394154993,9
14.562427071178531,0.0719490727881728,9
14.57242873812302,0.16005494664042244,9
14.582430405067512,0.24828705669363582,9
14.592432072012002,0.3232319795809446,9
14.602433738956494,0.4029582997128514,9
14.612435405900984,0.45533324944695125,9
14.622437072845475,0.5464807835716069,9
14.632438739789965,0.6044795265436342,9
14.642440406734456,0.6486318544288612,9
14.652442073678946,0.6758067290769119,9
14.662443740623438,0.7258092637759146,9
14.67244540756793,0.7487576054605024,9
14.68244707451242,0.7486669917567617,9
14.69244874145691,0.7818306967606666,9
14.7024504084014,0.7661182370034715,9
14.712452075345892,0.7601521605212678,9
14.722453742290382,0.7746074640749673,9
14.732455409234873,0.7367328715609709,9
14.742457076179363,0.6971861858795728,9
14.752458743123855,0.6653840823354759,9
14.762460410068345,0.6240201058262268,9
14.772462077012836,0.5892076193704032,9
14.782463743957328,0.5309230933291964,9
14.792465410901817,0.48814892739345106,9
14.802467077846309,0.4162708273813234,9
14.812468744790799,0.3816749819437766,9
14.82247041173529,0.3424952008112906,9
14.83247207867978,0.2769081649260825,9
14.842473745624272,0.24068944739491188,9
14.852475412568761,0.22205258133141942,9
14.862477079513253,0.17444973512624337,9
14.872478746457743,0.1364183047641949,9
14.882480413402234,0.11156084892469904,9
14.892482080346724,0.06981384840314682,9
14.902483747291216,0.046571273958715916,9
14.912485414235707,0.044231357975406296,9
14.922487081180197,0.032681897583907354,9
14.932488748124689,0.010211220103219112,9
14.942490415069178,0.01063821607063246,9
14.95249208201367,0.01677800720422267,9
14.96249374895816,0.0011536267935819476,9
14.972495415902651,-0.018637737180618175,9
14.982497082847141,0.01071234121400215,9
14.992498749791633,-0.021217248662629848,9
15.002500416736122,0.003171925915860175,9
15.012502083680614,-0.0069010313768531105,9
15.022503750625106,-0.008559653474503574,9
15.032505417569595,-0.0011871483056052623,9
15.042507084514087,-0.024668198566193726,9
15.052508751458577,-0.03382182711109122,9
15.062510418403068,-0.057493969176670365,9
15.072512085347558,-0.07434944928057037,9
15.08251375229205,-0.10280217026013351,9
15.09251541923654,-0.14159355185389697,9
15.102517086181031,-0.17262153637954217,9
15.11251875312552,-0.2070352399850644,9
15.122520420070012,-0.23530194723032874,9
15.132522087014504,-0.2994575505835925,9
15.142523753958994,-0.3399019979544909,9
15.152525420903485,-0.3911563531068723,9
15.162527087847975,-0.44669881337347944,9
15.172528754792467,-0.4896267472105363,9
15.182530421736956,-0.5415979881020485,9
15.192532088681448,-0.5845028034948594,9
15.202533755625938,-0.6243831505204237,9
15.21253542257043,-0.6748756151058254,9
15.222537089514919,-0.7117957047567254,9
15.23253875645941,-0.7298756700430945,9
15.2425404234039,-0.7435634336102991,9
15.252542090348392,-0.7696185375361962,9
15.262543757292883,-0.7648317121813923,9
15.272545424237373,-0.7740826143903621,9
15.282547091181865,-0.7684901006805567,9
15.292548758126355,-0.7479897061598241,9
15.302550425070846,-0.7329668260350356,9
15.312552092015336,-0.6939608097802308,9
15.322553758959828,-0.6688268130514315,9
15.332555425904317,-0.599932553877251,9
15.342557092848809,-0.5448008563947603,9
15.352558759793299,-0.4548750383120078,9
15.36256042673779,-0.3902666147778388,9
15.372562093682282,-0.3168540786491135,9
15.382563760626772,-0.22941468970695053,9
15.392565427571263,-0.14737699108778354,9
15.402567094515753,-0.07077540318042169,9
15.412568761460244,0.0208664324144113,9
15.422570428404734,0.11249271308935105,9
15.432572095349226,0.1938833566828818,9
15.442573762293716,0.27340657618359804,9
15.452575429238207,0.3721920277237868,9
15.462577096182697,0.43171986257714784,9
15.472578763127188,0.491412094357723,9
15.48258043007168,0.5798963019396192,9
15.49258209701617,0.6187292396893476,9
15.502583763960661,0.6550080346449305,9
15.512585430905151,0.715574377689849,9
15.522587097849643,0.754166345386265,9
15.532588764794133,0.7696049347588293,9
15.542590431738624,0.778759740374833,9
15.552592098683114,0.7709939196294691,9
15.562593765627605,0.7854813263903884,9
15.572595432572095,0.7687400931444578,9
15.582597099516587,0.7316314438115586,9
15.592598766461077,0.7194977093551532,9
15.602600433405568,0.6919415313152641,9
15.61260210035006,0.6657231922976351,9
15.62260376729455,0.6011218767786883,9
15.632605434239041,0.5667472733275958,9
15.64260710118353,0.49866283518121424,9
15.652608768128022,0.46895563804485263,9
15.662610435072512,0.4133571970829652,9
15.672612102017004,0.3645573793540698,9
15.682613768961494,0.34074507377546764,9
15.692615435905985,0.2567264121265632,9
15.702617102850475,0.2206392149519201,9
15.712618769794966,0.20069271568688798,9
15.722620436739458,0.14691854092742843,9
15.732622103683948,0.12303676697267726,9
15.74262377062844,0.0843574620997953,9
15.752625437572929,0.06065366295338454,9
15.76262710451742,0.05644608995322581,9
15.77262877146191,0.03772464600970485,9
15.782630438406402,0.024787949178718592,9
15.792632105350892,0.021320705601158042,9
15.802633772295383,-0.003696561783570723,9
15.812635439239873,-0.0009135181306554516,9
15.822637106184365,-4.454252945506785e-05,9
15.832638773128856,-0.0014761044344832155,9
15.842640440073346,-0.007352855106471678,9
15.852642107017838,0.007673603492832963,9
15.862643773962327,-0.010434334920096813,9
15.872645440906819,-0.008236646959125526,9
15.882647107851309,-0.0085693164641253,9
15.8926487747958,-0.00845918360053881,9
15.90265044174029,-0.024913078778737788,9
15.912652108684782,-0.03633275713284435,9
15.922653775629271,-0.05886809192326126,9
15.932655442573763,-0.11090490801239324,9
15.942657109518253,-0.09749958308316914,9
15.952658776462744,-0.14713583286604684,9
15.962660443407236,-0.16711385677230642,9
15.972662110351726,-0.21164939596876742,9
15.982663777296217,-0.2595423430602533,9
15.992665444240707,-0.30580444388558187,9
16.002667111185197,-0.3567757733457879,9
16.01266877812969,-0.3984204302037475,9
16.02267044507418,-0.47113647180901186,9
16.03267211201867,-0.5148160787901589,9
16.04267377896316,-0.557943103733647,9
16.052675445907653,-0.5963477514080507,9
16.062677112852143,-0.646578670426182,9
16.072678779796632,-0.691658525064138,9
16.082680446741126,-0.7195308846713371,9
16.092682113685616,-0.7544580150539485,9
16.102683780630105,-0.764906580229341,9
16.112685447574595,-0.7822559065052519,9
16.12268711451909,-0.7916492663164904,9
16.132688781463578,-0.7631088343089744,9
16.142690448408068,-0.7460539417229568,9
16.152692115352558,-0.7219992348408958,9
16.16269378229705,-0.7068288203441399,9
16.17269544924154,-0.6786504269927695,9
16.18269711618603,-0.6256897681657615,9
16.192698783130524,-0.5637479756540364,9
16.202700450075014,-0.5159587139924303,9
16.212702117019504,-0.4364269386251957,9
16.222703783963993,-0.37916341335883536,9
16.232705450908487,-0.2751504742140364,9
16.242707117852976,-0.21819585177852424,9
16.252708784797466,-0.13191044067007776,9
16.262710451741956,-0.041797230534815516,9
16.27271211868645,0.039193956913521275,9
16.28271378563094,0.14278447863720015,9
16.29271545257543,0.23417008353627602,9
16.302717119519922,0.3044894434964346,9
16.312718786464412,0.37496719444841364,9
16.322720453408902,0.4619217599020132,9
16.33272212035339,0.5234245371272842,9
16.342723787297885,0.581746038271105,9
16.352725454242375,0.6451303646829898,9
16.362727121186865,0.6897012015148574,9
16.372728788131354,0.7228228472804564,9
16.382730455075848,0.7523305672289705,9
16.392732122020337,0.7500219301045152,9
16.402733788964827,0.7672371845851383,9
16.41273545590932,0.7800741358691481,9
16.42273712285381,0.7859479403377285,9
16.4327387897983,0.7640628058590186,9
16.44274045674279,0.7426616496438493,9
16.452742123687283,0.7182972318460606,9
16.462743790631773,0.693915714800121,9
16.472745457576263,0.636403366699631,9
16.482747124520753,0.5776966104708259,9
16.492748791465246,0.5514078410688197,9
16.502750458409736,0.495476598260474,9
16.512752125354226,0.4528794162657963,9
16.522753792298715,0.38048458239576244,9
16.53275545924321,0.356743722260784,9
16.5427571261877,0.3079129106792803,9
16.55275879313219,0.2519213092581157,9
16.56276046007668,0.22743294738445194,9
16.57276212702117,0.18481489004468407,9
16.58276379396566,0.1358710687721001,9
16.59276546091015,0.12082420115291491,9
16.602767127854644,0.08292476738783959,9
16.612768794799134,0.04597103467734644,9
16.622770461743624,0.037261754729236436,9
16.632772128688114,0.01753441729063901,9
16.642773795632607,0.004351272648683964,9
16.652775462577097,0.0017405166613308695,9
16.662777129521587,0.006910198051611345,9
16.67277879646608,-0.0010978189309405698,9
16.68278046341057,-0.01588094263092051,9
16.69278213035506,-0.0027108153514415465,9
16.70278379729955,0.0038622060248084426,9
16.712785464244043,0.00422531903173744,9
16.722787131188532,0.0011921444471972493,9
16.732788798133022,-0.016603054784642204,9
16.742790465077512,-0.01807370722469896,9
16.752792132022005,-0.013104969063681186,9
16.762793798966495,-0.026607726492151137,9
16.772795465910985,-0.049632357043080055,9
16.782797132855478,-0.06669059186118034,9
16.792798799799968,-0.09963005022750505,9
16.802800466744458,-0.1173152092997835,9
16.812802133688947,-0.15192698011635794,9
16.82280380063344,-0.19330669474136417,9
16.83280546757793,-0.23560756450185252,9
16.84280713452242,-0.2870242967437906,9
16.85280880146691,-0.35198473588889223,9
16.862810468411404,-0.3628472934250269,9
16.872812135355893,-0.42303839723705094,9
16.882813802300383,-0.47790529078604793,9
16.892815469244876,-0.537938679302223,9
16.902817136189366,-0.5792664488852458,9
16.912818803133856,-0.6187108982574946,9
16.922820470078346,-0.6629718254115631,9
16.93282213702284,-0.6903293176928035,9
16.94282380396733,-0.7245364259818525,9
16.95282547091182,-0.7402893543025527,9
16.96282713785631,-0.7786762050105834,9
16.972828804800802,-0.7728067876683901,9
16.98283047174529,-0.7772320353577334,9
16.99283213868978,-0.7617403236778953,9
17.002833805634275,-0.7549259199563302,9
17.012835472578764,-0.72150595257487,9
17.022837139523254,-0.6919951913994751,9
17.032838806467744,-0.6529326946377505,9
17.042840473412237,-0.5933158553826396,9
17.052842140356727,-0.5366613412536356,9
17.062843807301217,-0.4912455296326643,9
17.072845474245707,-0.40744058809576916,9
17.0828471411902,-0.336542673765811,9
17.09284880813469,-0.25797819408102757,9
17.10285047507918,-0.16830104174756644,9
17.112852142023673,-0.08019048698004459,9
17.122853808968163,-0.01254152773537493,9
17.132855475912653,0.08479689930531975,9
17.142857142857142,0.18345513755512247,9
17.152858809801636,0.24825596845484674,9
17.162860476746125,0.34813880801096375,9
17.172862143690615,0.40856342448601535,9
17.182863810635105,0.46971350034222276,9
17.1928654775796,0.5640954371375181,9
17.202867144524088,0.6087232245619749,9
17.212868811468578,0.6565925052271224,9
17.222870478413068,0.7045096583041647,9
17.23287214535756,0.7223796994061652,9
17.24287381230205,0.7553980741931319,9
17.25287547924654,0.7608691705451268,9
17.262877146191034,0.7869491119881347,9
17.272878813135524,0.7702820485853916,9
17.282880480080014,0.7730483439584825,9
17.292882147024503,0.7564481436319607,9
17.302883813968997,0.7139770570959786,9
17.312885480913486,0.6941121946062359,9
17.322887147857976,0.6778084123232523,9
17.332888814802466,0.6007801036662265,9
17.34289048174696,0.5776802487048726,9
17.35289214869145,0.5095022050009966,9
17.36289381563594,0.46280088156434573,9
17.372895482580432,0.4249005593990744,9
17.382897149524922,0.386639307087999,9
17.392898816469412,0.3256265615691662,9
17.4029004834139,0.2809794042759453,9
17.412902150358395,0.2279459759321436,9
17.422903817302885,0.17575631543772507,9
17.432905484247375,0.1736856880441945,9
17.442907151191864,0.13405691351103932,9
17.452908818136358,0.10402394181173175,9
17.462910485080847,0.06709935029562317,9
17.472912152025337,0.035566144174447076,9
17.48291381896983,0.032598667996101116,9
17.49291548591432,0.03686931370739394,9
17.50291715285881,0.010501221314089855,9
17.5129188198033,0.013289727777608349,9
17.522920486747793,0.01483291902539681,9
17.532922153692283,-0.002649763435367439,9
17.542923820636773,0.002725609719625872,9
17.552925487581263,0.003207141085309723,9
17.562927154525756,-0.018303938728994922,9
17.572928821470246,0.004381303192971797,9
17.582930488414735,-0.0125669025168015,9
17.59293215535923,-0.0002911021279317239,9
17.60293382230372,-0.006761674861365405,9
17.61293548924821,-0.02101786257343258,9
17.622937156192698,-0.047578353814414734,9
17.63293882313719,-0.07172807051760216,9
17.64294049008168,-0.0669057112679057,9
17.65294215702617,-0.10847195497502433,9
17.66294382397066,-0.1432346392149295,9
17.672945490915154,-0.17925378785860135,9
17.682947157859644,-0.2227499891254331,9
17.692948824804134,-0.2575598476352783,9
17.702950491748627,-0.3050182050314945,9
17.712952158693117,-0.3647049115134657,9
17.722953825637607,-0.4107376485779203,9
17.732955492582096,-0.4464141286616864,9
17.74295715952659,-0.49809734248695453,9
17.75295882647108,-0.5332953452848166,9
17.76296049341557,-0.5867119930204083,9
17.77296216036006,-0.6363744483050373,9
17.782963827304552,-0.6696942589614336,9
17.792965494249042,-0.7104244600861257,9
17.802967161193532,-0.7448989421233568,9
17.812968828138025,-0.7593993146658742,9
17.822970495082515,-0.7655057437880591,9
17.832972162027005,-0.7753365286137487,9
17.842973828971495,-0.7690970294488019,9
17.852975495915988,-0.7692682778384665,9
17.862977162860478,-0.7412644266273759,9
17.872978829804968,-0.6952174329970939,9
17.882980496749457,-0.6866007017497744,9
17.89298216369395,-0.6345737127883083,9
17.90298383063844,-0.5901279345287329,9
17.91298549758293,-0.5172045444438002,9
17.92298716452742,-0.4487596591836748,9
17.932988831471913,-0.3832405820068641,9
17.942990498416403,-0.2999944872328546,9
17.952992165360893,-0.23560204920201097,9
17.962993832305386,-0.12269093448728602,9
17.972995499249876,-0.050338837309421985,9
17.982997166194366,0.04050288482995279,9
17.992998833138856,0.11566482547865847,9
18.00300050008335,0.2060964876124313,9
18.01300216702784,0.295593968406609,9
18.02300383397233,0.34968706770646146,9
18.03300550091682,0.4388674027528073,9
18.04300716786131,0.523425764826959,9
18.0530088348058,0.5656607101929846,9
18.06301050175029,0.6272778377257603,9
18.073012168694785,0.6779919898997315,9
18.083013835639274,0.7111213077172459,9
18.093015502583764,0.7322555373397552,9
18.103017169528254,0.7676838588634215,9
18.113018836472747,0.7720458188737994,9
18.123020503417237,0.7688292505740196,9
18.133022170361727,0.7721954574957932,9
18.143023837306217,0.7588847228511016,9
18.15302550425071,0.7270587079086186,9
18.1630271711952,0.723233969923906,9
18.17302883813969,0.68387822192345,9
18.183030505084183,0.6528311302046256,9
18.193032172028673,0.6072803045553749,9
18.203033838973163,0.5455845448333143,9
18.213035505917652,0.5184585468864454,9
18.223037172862146,0.4587932483047387,9
18.233038839806635,0.41807919965034857,9
18.243040506751125,0.3538328288157954,9
18.253042173695615,0.2944425079108704,9
18.26304384064011,0.26845566289058853,9
18.273045507584598,0.22448794911912787,9
18.283047174529088,0.18407153196812526,9
18.29304884147358,0.149030328097762,9
18.30305050841807,0.10452863038576829,9
18.31305217536256,0.08921267553609027,9
18.32305384230705,0.06405121906697331,9
18.333055509251544,0.04755406289832666,9
18.343057176196034,0.023467047952794452,9
18.353058843140523,0.003488944827339498,9
18.363060510085013,0.008852762870068337,9
18.373062177029507,-0.016314620177371342,9
18.383063843973996,0.010036943675860199,9
18.393065510918486,-0.004576981627729213,9
18.40306717786298,-0.004578316138162688,9
18.41306884480747,-0.009465714266814064,9
18.42307051175196,-0.00549552987539952,9
18.43307217869645,-0.015077615974140932,9
18.443073845640942,0.010612027223915764,9
18.453075512585432,-0.0177794281947791,9
18.463077179529922,-0.014876547533784684,9
18.47307884647441,-0.023828312759086645,9
18.483080513418905,-0.055259946094720236,9
18.493082180363395,-0.0761884447203646,9
18.503083847307884,-0.08799800091431191,9
18.513085514252378,-0.13861779653980583,9
18.523087181196868,-0.15710704336575174,9
18.533088848141357,-0.18483299379992263,9
18.543090515085847,-0.22376887489350997,9
18.55309218203034,-0.268265815725015,9
18.56309384897483,-0.31698104436853797,9
18.57309551591932,-0.3702067938493983,9
18.58309718286381,-0.3973877558519853,9
18.593098849808303,-0.46951687170012196,9
18.603100516752793,-0.5306916287370311,9
18.613102183697283,-0.5462972405199088,9
18.623103850641776,-0.6177002183692546,9
18.633105517586266,-0.6286635258311764,9
18.643107184530756,-0.6826314588052652,9
18.653108851475245,-0.717968830992822,9
18.66311051841974,-0.7384471897015705,9
18.67311218536423,-0.758703815714004,9
18.68311385230872,-0.789103422091445,9
18.693115519253208,-0.7741312662727814,9
18.7031171861977,-0.7680762748908591,9
18.71311885314219,-0.7624184588241993,9
18.72312052008668,-0.7289753466071061,9
18.73312218703117,-0.7160738158062592,9
18.743123853975664,-0.666121540268407,9
18.753125520920154,-0.6138794828850386,9
18.763127187864644,-0.5655701701677842,9
18.773128854809137,-0.48436219066244324,9
18.783130521753627,-0.4211548561587205,9
18.793132188698117,-0.34690913600885986,9
18.803133855642606,-0.28184279166456866,9
18.8131355225871,-0.17963040032105013,9
18.82313718953159,-0.12271587771654671,9
18.83313885647608,-0.014665669110083122,9
18.84314052342057,0.06689849619584048,9
18.853142190365062,0.13264667667034516,9
18.863143857309552,0.2354842325523704,9
18.873145524254042,0.3096503059531177,9
18.883147191198535,0.4037331776741304,9
18.893148858143025,0.47386192150517653,9
18.903150525087515,0.5523899727473992,9
18.913152192032005,0.6179662674480464,9
18.923153858976498,0.6573415445806381,9
18.933155525920988,0.698182893260736,9
18.943157192865478,0.7133341308799143,9
18.953158859809967,0.7497028700626601,9
18.96316052675446,0.7519118350235643,9
18.97316219369895,0.7758828467998834,9
18.98316386064344,0.7739980466041017,9
18.993165527587934,0.7738364144674525,9
19.003167194532423,0.7420217796890947,9
19.013168861476913,0.7277269849542347,9
19.023170528421403,0.6917326736801632,9
19.033172195365896,0.6799384894472754,9
19.043173862310386,0.6333113343780291,9
19.053175529254876,0.5731654274542725,9
19.063177196199366,0.5346927932511273,9
19.07317886314386,0.476922231465132,9
19.08318053008835,0.4168724176474669,9
19.09318219703284,0.3867930763515375,9
19.103183863977332,0.33784227831551333,9
19.11318553092182,0.3079668038889275,9
19.12318719786631,0.2637669501287838,9
19.1331888648108,0.20525779658846727,9
19.143190531755295,0.16838785729622013,9
19.153192198699784,0.13288191859216503,9
19.163193865644274,0.10980272194795855,9
19.173195532588764,0.06596989367301045,9
19.183197199533257,0.037314674986786575,9
19.193198866477747,0.05083676651212824,9
19.203200533422237,0.008160709776297907,9
19.21320220036673,0.004621436425097216,9
19.22320386731122,0.003289181802990095,9
19.23320553425571,-0.01205579288852085,9
19.2432072012002,0.013349431132089275,9
19.253208868144693,0.0105333583662026,9
19.263210535089183,0.006537110086585834,9
19.273212202033672,-0.0009429967173999096,9
19.283213868978162,0.005144763292014627,9
19.293215535922656,0.009963761533510732,9
19.303217202867145,-0.010199884800476558,9
19.313218869811635,-0.03816894927821727,9
19.32322053675613,-0.01559097986500337,9
19.33322220370062,-0.037284254357581856,9
19.343223870645108,-0.058971422925515,9
19.353225537589598,-0.06861591819410649,9
19.36322720453409,-0.11151788514875985,9
19.37322887147858,-0.1304576276064968,9
19.38323053842307,-0.17223726365747496,9
19.39323220536756,-0.20370058239701155,9
19.403233872312054,-0.24112167188283953,9
19.413235539256544,-0.2858818331460624,9
19.423237206201033,-0.337731840462396,9
19.433238873145523,-0.37694936643864635,9
19.443240540090017,-0.4477662010861439,9
19.453242207034506,-0.48604795186405353,9
19.463243873978996,-0.5478010671061976,9
19.47324554092349,-0.5844035257797907,9
19.48324720786798,-0.602182710714522,9
19.49324887481247,-0.685545588795856,9
19.50325054175696,-0.7044342714563637,9
19.513252208701452,-0.7351740002154196,9
19.523253875645942,-0.7359337193727966,9
19.53325554259043,-0.7607542048959154,9
19.54325720953492,-0.7752261242721626,9
19.553258876479415,-0.7810085583532955,9
19.563260543423905,-0.7617778789281121,9
19.573262210368394,-0.759210706368613,9
19.583263877312888,-0.7295742164016856,9
19.593265544257378,-0.6826535156303436,9
19.603267211201867,-0.643517218933983,9
19.613268878146357,-0.6001977929883172,9
19.62327054509085,-0.5329543148082858,9
19.63327221203534,-0.46928485471671094,9
19.64327387897983,-0.399614290478788,9
19.65327554592432,-0.33576263041577714,9
19.663277212868813,-0.23443631683761182,9
19.673278879813303,-0.15489842900727385,9
19.683280546757793,-0.07579210002626657,9
19.693282213702286,0.030831692667841255,9
19.703283880646776,0.09380802177486226,9
19.713285547591266,0.20667338649760958,9
19.723287214535755,0.27012680207121703,9
19.73328888148025,0.3473383726192384,9
19.74329054842474,0.43211568419546537,9
19.75329221536923,0.4958793681626549,9
19.763293882313718,0.5484602785993283,9
19.77329554925821,0.6272228507360533,9
19.7832972162027,0.674178316484275,9
19.79329888314719,0.6908004543387439,9
19.803300550091684,0.7503266704321667,9
19.813302217036174,0.7600798978106861,9
19.823303883980664,0.7631073989495146,9
19.833305550925154,0.7766511275413173,9
19.843307217869647,0.7701908985807292,9
19.853308884814137,0.7756664426796656,9
19.863310551758627,0.7275406505858776,9
19.873312218703116,0.7084870853634495,9
19.88331388564761,0.683758899059959,9
19.8933155525921,0.6421160803394743,9
19.90331721953659,0.6001172026419862,9
19.913318886481083,0.5733536959518686,9
19.923320553425572,0.5154638057968443,9
19.933322220370062,0.476275760582978,9
19.943323887314552,0.414515410058455,9
19.953325554259045,0.3755673188083053,9
19.963327221203535,0.3043066493210672,9
19.973328888148025,0.2644367235286372,9
19.983330555092515,0.21555095572235772,9
19.993332222037008,0.19097653680258372,9
20.003333888981498,0.1684905673952664,9
20.013335555925988,0.13146232890673634,9
20.02333722287048,0.09066736983424681,9
20.03333888981497,0.08591338357269823,9
20.04334055675946,0.04705346473298078,9
20.05334222370395,0.027883573290239987,9
20.063343890648444,0.019281137545410706,9
20.073345557592933,0.01973961738504707,9
20.083347224537423,0.012969509229405362,9
20.093348891481913,0.0009791258132071845,9
20.103350558426406,0.006376796393485784,9
20.113352225370896,-0.004255817436603257,9
20.123353892315386,0.0013677152304651776,9
20.133355559259876,-0.00679500448150632,9
20.14335722620437,0.004063889463831155,9
20.15335889314886,0.0058192094310835895,9
20.16336056009335,-0.017015399255259137,9
20.173362227037842,-0.014833848105729477,9
20.18336389398233,-0.033878461679279964,9
20.19336556092682,-0.045804001174100814,9
20.20336722787131,-0.0636969177195691,9
20.213368894815805,-0.09152718036663851,9
20.223370561760294,-0.11234157877342454,9
20.233372228704784,-0.14175205892444517,9
20.243373895649274,-0.18636756593832043,9
20.253375562593767,-0.20860916712760014,9
20.263377229538257,-0.25990673248565976,9
20.273378896482747,-0.31183187469906837,9
20.28338056342724,-0.34905044451795014,9
20.29338223037173,-0.41179930670945764,9
20.30338389731622,-0.449677228556978,9
20.31338556426071,-0.5058239628437677,9
20.323387231205203,-0.5484239179099112,9
20.333388898149693,-0.6070933318327906,9
20.343390565094182,-0.6417104844811466,9
20.353392232038672,-0.6734662475041212,9
20.363393898983166,-0.7007568581396422,9
20.373395565927655,-0.740700415071399,9
20.383397232872145,-0.7671871704037898,9
20.39339889981664,-0.7767994796233505,9
20.40340056676113,-0.779981195742038,9
20.413402233705618,-0.7765457008872144,9
20.423403900650108,-0.7516101454263285,9
20.4334055675946,-0.733549752513993,9
20.44340723453909,-0.7310981986881084,9
20.45340890148358,-0.6685620875463197,9
20.46341056842807,-0.6280136226470315,9
20.473412235372564,-0.5732735231436621,9
20.483413902317054,-0.5063637352144013,9
20.493415569261543,-0.4459099683405989,9
20.503417236206037,-0.3609248781743347,9
20.513418903150527,-0.30704499734742213,9
20.523420570095016,-0.21718636698709357,9
20.533422237039506,-0.13744839492638336,9
20.543423903984,-0.031204441538920817,9
20.55342557092849,0.039769827202264345,9
20.56342723787298,0.13375406513053048,9
20.57342890481747,0.2264950277526225,9
20.583430571761962,0.3252890826247439,9
20.593432238706452,0.38552143663197197,9
20.60343390565094,0.4580094078208397,9
20.613435572595435,0.5182769734397299,9
20.623437239539925,0.5880512032262862,9
20.633438906484415,0.6566330334477288,9
20.643440573428904,0.6855521422180232,9
20.653442240373398,0.7279605165658711,9
20.663443907317887,0.7632907913109304,9
20.673445574262377,0.7629258543810357,9
20.683447241206867,0.7958184442317632,9
20.69344890815136,0.7836083413593997,9
20.70345057509585,0.7901124958325761,9
20.71345224204034,0.7459948428177305,9
20.723453908984833,0.7313974513288081,9
20.733455575929323,0.7044576931476172,9
20.743457242873813,0.6788105760845831,9
20.753458909818303,0.6341738266646022,9
20.763460576762796,0.6006008204356372,9
20.773462243707286,0.5557612078663415,9
20.783463910651776,0.5017975252848589,9
20.793465577596265,0.4497138263801753,9
20.80346724454076,0.4014351000086916,9
20.81346891148525,0.3444503200469743,9
20.82347057842974,0.312576054122252,9
20.83347224537423,0.25509253402792237,9
20.84347391231872,0.223321026808631,9
20.85347557926321,0.17097526678264596,9
20.8634772462077,0.14463154635935657,9
20.873478913152194,0.12247450320084051,9
20.883480580096684,0.08820780034834792,9
20.893482247041174,0.046059148123393345,9
20.903483913985664,0.05472467775458284,9
20.913485580930157,0.035682891290978534,9
20.923487247874647,0.03326200013734054,9
20.933488914819137,0.008933247662844304,9
20.943490581763626,-0.0021819625071507623,9
20.95349224870812,0.0009997941980344335,9
20.96349391565261,0.013059402954518306,9
20.9734955825971,-0.005385815800335068,9
20.983497249541593,-0.006138643157384084,9
20.993498916486082,0.016648363948118593,9
21.003500583430572,0.0075405328627223215,9
21.013502250375062,-0.002867614313523501,9
21.023503917319555,-0.01398962878956158,9
21.033505584264045,-0.023359984207061972,9
21.043507251208535,-0.03916713954891365,9
21.053508918153025,-0.04285917531511597,9
21.063510585097518,-0.06326044656354292,9
21.073512252042008,-0.08469684903203684,9
21.083513918986498,-0.12624993495665385,9
21.09351558593099,-0.16457235097715633,9
21.10351725287548,-0.1903915688472144,9
21.11351891981997,-0.24369887731126388,9
21.12352058676446,-0.28089232869726866,9
21.133522253708954,-0.3363032140712185,9
21.143523920653443,-0.400075474488714,9
21.153525587597933,-0.41646871058177115,9
21.163527254542423,-0.46604753047251646,9
21.173528921486916,-0.5399441587578286,9
21.183530588431406,-0.5972091347909386,9
21.193532255375896,-0.6192231735792599,9
21.20353392232039,-0.6364153952362823,9
21.21353558926488,-0.6699380067460516,9
21.22353725620937,-0.7172449147479458,9
21.23353892315386,-0.7701754686717944,9
21.243540590098352,-0.7782050827244685,9
21.25354225704284,-0.7710574509440433,9
21.26354392398733,-0.7701664578134603,9
21.27354559093182,-0.7630372501334359,9
21.283547257876315,-0.7647976997469926,9
21.293548924820804,-0.7281732823207547,9
21.303550591765294,-0.7053071468443092,9
21.313552258709787,-0.6575875095134636,9
21.323553925654277,-0.6191900129211169,9
21.333555592598767,-0.5373575908827003,9
21.343557259543257,-0.4795104407519956,9
21.35355892648775,-0.4224263998191003,9
21.36356059343224,-0.32963850303058523,9
21.37356226037673,-0.26682515916257216,9
21.38356392732122,-0.17205358160822157,9
21.393565594265713,-0.08101117284545159,9
21.403567261210203,0.006662728032231542,9
21.413568928154692,0.08252826567660765,9
21.423570595099186,0.17001880513113599,9
21.433572262043675,0.2665145410861275,9
21.443573928988165,0.3406216550368194,9
21.453575595932655,0.41059658204928384,9
21.46357726287715,0.4932581287965486,9
21.473578929821638,0.5469860159299014,9
21.483580596766128,0.6058930672950034,9
21.493582263710618,0.6728888073719878,9
21.50358393065511,0.7080583379896668,9
21.5135855975996,0.7298205788700128,9
21.52358726454409,0.7569560123474959,9
21.533588931488584,0.7720717768908414,9
21.543590598433074,0.7675995905001319,9
21.553592265377564,0.7843009931078894,9
21.563593932322053,0.7582256605458841,9
21.573595599266547,0.7570080055043649,9
21.583597266211036,0.7115979192928203,9
21.593598933155526,0.6936235377932422,9
21.603600600100016,0.6667948735330019,9
21.61360226704451,0.6298286856173155,9
21.623603933989,0.5846568576299837,9
21.63360560093349,0.5256832430869772,9
21.64360726787798,0.4727877828930409,9
21.653608934822472,0.41370704708404743,9
21.663610601766962,0.3804419104725597,9
21.67361226871145,0.3255836744145826,9
21.683613935655945,0.2915665672945559,9
21.693615602600435,0.22977358112152532,9
21.703617269544925,0.2055019457264,9
21.713618936489414,0.16125017507804165,9
21.723620603433908,0.13651120546593729,9
21.733622270378397,0.08832812532227821,9
21.743623937322887,0.08142554021153206,9
21.753625604267377,0.046878297413946834,9
21.76362727121187,0.03569039304787509,9
21.77362893815636,0.01522513203203505,9
21.78363060510085,0.0022389405301494678,9
21.793632272045343,0.0002267341504081418,9
21.803633938989833,-0.003446641195183409,9
21.813635605934323,-0.005345907748982428,9
21.823637272878813,-0.007216301412903799,9
21.833638939823306,0.006799817812432538,9
21.843640606767796,0.0023929577449927184,9
21.853642273712286,0.005261991231688876,9
21.863643940656775,0.0011805765567559539,9
21.87364560760127,-0.01245008577515482,9
21.88364727454576,-0.016282676709167533,9
21.893648941490248,-0.02613451208874264,9
21.90365060843474,-0.03164563222886436,9
21.91365227537923,-0.048778383668497294,9
21.92365394232372,-0.08106245785416008,9
21.93365560926821,-0.10889613914881976,9
21.943657276212704,-0.1558563939894198,9
21.953658943157194,-0.16428055621422197,9
21.963660610101684,-0.20213761831550683,9
21.973662277046174,-0.24359049581250483,9
21.983663943990667,-0.29287540335475964,9
21.993665610935157,-0.3516703134889523,9
22.003667277879646,-0.3905382970156511,9
22.01366894482414,-0.4413021386471579,9
22.02367061176863,-0.5106872172324691,9
22.03367227871312,-0.5391098968599197,9
22.04367394565761,-0.6002694154396253,9
22.053675612602103,-0.6323943095817576,9
22.063677279546592,-0.6772826865584556,9
22.073678946491082,-0.6762154887430424,9
22.083680613435572,-0.7315211869461411,9
22.093682280380065,-0.7655897988586537,9
22.103683947324555,-0.7645971750156424,9
22.113685614269045,-0.7831273163638138,9
22.123687281213538,-0.7891931293553927,9
22.133688948158028,-0.7783227214180148,9
22.143690615102518,-0.7413252398464308,9
22.153692282047007,-0.7147765127753316,9
22.1636939489915,-0.6714588273929857,9
22.17369561593599,-0.6333811020864824,9
22.18369728288048,-0.5923260574224163,9
22.19369894982497,-0.524034451399119,9
22.203700616769463,-0.4586087609530066,9
22.213702283713953,-0.392638190524918,9
22.223703950658443,-0.30085046340570804,9
22.233705617602936,-0.2388633458480508,9
22.243707284547426,-0.13234581522590252,9
22.253708951491916,-0.04017602207422409,9
22.263710618436406,0.03671401424164844,9
22.2737122853809,0.12269821619263342,9
22.28371395232539,0.21590671699291147,9
22.29371561926988,0.29543392000252305,9
22.30371728621437,0.3666337008252015,9
22.313718953158862,0.44347705888421657,9
22.32372062010335,0.5057975596998132,9
22.33372228704784,0.5631056554117049,9
22.34372395399233,0.643376299730831,9
22.353725620936824,0.6777781280694811,9
22.363727287881314,0.7123917372315226,9
22.373728954825804,0.7484752314497448,9
22.383730621770297,0.7711704660356561,9
22.393732288714787,0.7909896544799095,9
22.403733955659277,0.7918559400269132,9
22.413735622603767,0.7829808788608522,9
22.42373728954826,0.7684554061473905,9
22.43373895649275,0.7223554023745145,9
22.44374062343724,0.6936609179320868,9
22.45374229038173,0.68408997471742,9
22.463743957326223,0.6420365003185922,9
22.473745624270713,0.5980073990791815,9
22.483747291215202,0.5474756500662524,9
22.493748958159696,0.5161880943922689,9
22.503750625104185,0.4370644271380919,9
22.513752292048675,0.4020525333769548,9
22.523753958993165,0.35171803613015384,9
22.53375562593766,0.30319260919169067,9
22.543757292882148,0.2682338843972923,9
22.553758959826638,0.22396164058976045,9
22.563760626771128,0.17570214508970528,9
22.57376229371562,0.1616146668276945,9
22.58376396066011,0.118807926415118,9
22.5937656276046,0.10076666861957197,9
22.603767294549094,0.06019612963901625,9
22.613768961493584,0.05106794176549104,9
22.623770628438074,0.025768528277218414,9
22.633772295382563,0.023634968289138324,9
22.643773962327057,0.0008626728624867453,9
22.653775629271546,0.021415054418341798,9
22.663777296216036,0.026646275023758974,9
22.673778963160526,-0.0005867500240347801,9
22.68378063010502,0.00011034852762221092,9
22.69378229704951,-0.0063417576903790455,9
22.703783963994,0.01982534788057222,9
22.713785630938492,-0.005609161767814513,9
22.723787297882982,-0.002545395094896314,9
22.733788964827472,-0.011835849451457547,9
22.74379063177196,-0.009457504801973533,9
22.753792298716455,-0.04557396065072872,9
22.763793965660945,-0.049693593887598246,9
22.773795632605434,-0.06336802349098228,9
22.783797299549924,-0.09834662890236971,9
22.793798966494418,-0.11130488344716263,9
22.803800633438907,-0.1564976678144649,9
22.813802300383397,-0.2026412607627745,9
22.82380396732789,-0.22809058441738517,9
22.83380563427238,-0.27188319698324204,9
22.84380730121687,-0.3333068132597862,9
22.85380896816136,-0.36172857821456694,9
22.863810635105853,-0.4117537618820557,9
22.873812302050343,-0.47968824985764186,9
22.883813968994833,-0.522761058425195,9
22.893815635939323,-0.5648904262890944,9
22.903817302883816,-0.6047841660987879,9
22.913818969828306,-0.6504749345189975,9
22.923820636772795,-0.682437238132709,9
22.93382230371729,-0.7289079852670194,9
22.94382397066178,-0.75815594497069,9
22.95382563760627,-0.7655496520953907,9
22.963827304550758,-0.7517762938176428,9
22.97382897149525,-0.7805095417800018,9
22.98383063843974,-0.7567552568162221,9
22.99383230538423,-0.7603017292503097,9
23.00383397232872,-0.735238929103708,9
23.013835639273214,-0.7078719036100337,9
23.023837306217704,-0.6520006542163105,9
23.033838973162194,-0.6269488980593588,9
23.043840640106687,-0.5589488759926797,9
23.053842307051177,-0.5056891680343385,9
23.063843973995667,-0.44757753438755754,9
23.073845640940156,-0.3563306356977308,9
23.08384730788465,-0.2770241987345178,9
23.09384897482914,-0.16317564815785512,9
23.10385064177363,-0.11021396291381097,9
23.11385230871812,-0.006855787736868695,9
23.123853975662612,0.061662299146391195,9
23.133855642607102,0.16138750899333618,9
23.143857309551592,0.23965160820668233,9
23.153858976496082,0.31432334010801033,9
23.163860643440575,0.3909682715021417,9
23.173862310385065,0.4670361366110065,9
23.183863977329555,0.5239723703030011,9
23.193865644274048,0.589761303277717,9
23.203867311218538,0.6584250111552901,9
23.213868978163028,0.6701698055772415,9
23.223870645107517,0.7380065972787528,9
23.23387231205201,0.7590239197597183,9
23.2438739789965,0.7668274984796752,9
23.25387564594099,0.8007998056311517,9
23.26387731288548,0.7922617439693409,9
23.273878979829973,0.7665548128378213,9
23.283880646774463,0.7413663287342985,9
23.293882313718953,0.7330773156902161,9
23.303883980663446,0.7009959455661298,9
23.313885647607936,0.6715830109884057,9
23.323887314552426,0.6313417052965749,9
23.333888981496916,0.5875551623996292,9
23.34389064844141,0.5279633864858903,9
23.3538923153859,0.4909840649569655,9
23.36389398233039,0.4304559198043529,9
23.37389564927488,0.38183459524405444,9
23.38389731621937,0.3305080117947124,9
23.39389898316386,0.2975538407628157,9
23.40390065010835,0.2470183586676072,9
23.413902317052845,0.20151906426167057,9
23.423903983997334,0.17632892784825413,9
23.433905650941824,0.13587313794118447,9
23.443907317886314,0.09830230532292444,9
23.453908984830807,0.05092352204444596,9
23.463910651775297,0.04135229715701131,9
23.473912318719787,0.050945834567839875,9
23.483913985664277,0.02500081588643027,9
23.49391565260877,0.012502757195990002,9
23.50391731955326,0.00549927142407439,9
23.51391898649775,-0.008303655272614919,9
23.523920653442243,0.009563545691568462,9
23.533922320386733,-0.02591144637092557,9
23.543923987331222,0.005166289707400299,9
23.553925654275712,0.015805797686228498,9
23.563927321220206,0.02326855538661793,9
23.573928988164695,0.009841566161505853,9
23.583930655109185,-0.005849377410509582,9
23.593932322053675,-0.02101944215410138,9
23.60393398899817,-0.02093025618771873,9
23.613935655942658,-0.038198582798558874,9
23.623937322887148,-0.06226862625091972,9
23.63393898983164,-0.07376990544514757,9
23.64394065677613,-0.139368731482218,9
23.65394232372062,-0.13099333016228112,9
23.66394399066511,-0.16636737322222675,9
23.673945657609604,-0.2088223153012431,9
23.683947324554094,-0.25510053904142527,9
23.693948991498583,-0.2993474923308667,9
23.703950658443073,-0.34576337143189007,9
23.713952325387567,-0.37484756669979885,9
23.723953992332056,-0.4310719541742349,9
23.733955659276546,-0.4838589692078257,9
23.74395732622104,-0.5219625613818384,9
23.75395899316553,-0.5803393195075554,9
23.76396066011002,-0.6428042643457588,9
23.77396232705451,-0.6453136979210843,9
23.783963993999002,-0.6818119345683262,9
23.793965660943492,-0.7375350929943998,9
23.80396732788798,-0.7445406573227672,9
23.81396899483247,-0.7724853440962303,9
23.823970661776965,-0.7765925022368746,9
23.833972328721455,-0.7805334926803286,9
23.843973995665944,-0.7707972436960953,9
23.853975662610434,-0.7458693169681122,9
23.863977329554928,-0.7181082888319925,9
23.873978996499417,-0.6925818888246266,9
23.883980663443907,-0.6451929786095334,9
23.8939823303884,-0.5858232415665122,9
23.90398399733289,-0.54213685728736,9
23.91398566427738,-0.466420660532303,9
23.92398733122187,-0.3923880584141954,9
23.933988998166363,-0.31780615465092793,9
23.943990665110853,-0.22308283511245414,9
23.953992332055343,-0.14528460597807777,9
23.963993998999833,-0.05434099676780371,9
23.973995665944326,0.012436374121538862,9
23.983997332888816,0.11349485642305662,9
23.993998999833305,0.20778704515949498,9
24.0040006667778,0.2855062969910038,9
24.01400233372229,0.3673178841413686,9
24.02400400066678,0.4183849060938111,9
24.034005667611268,0.4915087507812262,9
24.04400733455576,0.5796198486353867,9
24.05400900150025,0.6305128573647891,9
24.06401066844474,0.6806864109568064,9
24.07401233538923,0.7116466792108127,9
24.084014002333724,0.728795263088491,9
24.094015669278214,0.75203909301427,9
24.104017336222704,0.7767885112224896,9
24.114019003167197,0.7735725162688344,9
24.124020670111687,0.7761324034774182,9
24.134022337056177,0.7769970800798783,9
24.144024004000666,0.7390819490399188,9
24.15402567094516,0.7386868874623462,9
24.16402733788965,0.6939277124185631,9
24.17402900483414,0.6464496927134721,9
24.18403067177863,0.6117625007396621,9
24.194032338723122,0.5675215057889162,9
24.204034005667612,0.5152899690623088,9
24.214035672612102,0.46628166557022305,9
24.224037339556595,0.42769987541773635,9
24.234039006501085,0.36380819817559246,9
24.244040673445575,0.3140248064616532,9
24.254042340390065,0.29496692386781276,9
24.264044007334558,0.22293082605750097,9
24.274045674279048,0.18822979181902216,9
24.284047341223538,0.15484766374302736,9
24.294049008168027,0.1223154313577593,9
24.30405067511252,0.08380242031914566,9
24.31405234205701,0.07158012616402322,9
24.3240540090015,0.03907092508993922,9
24.334055675945994,0.0031346948556267053,9
24.344057342890483,0.024136722017782743,9
24.354059009834973,-0.0003422418889270206,9
24.364060676779463,0.0069536357735635445,9
24.374062343723956,0.008273853252346832,9
24.384064010668446,0.011244473313829944,9
24.394065677612936,0.014755831574600538,9
24.404067344557426,0.0002535019837864439,9
24.41406901150192,-0.005989803506791413,9
24.42407067844641,0.0012446709602242077,9
24.4340723453909,-0.0064024395610093295,9
24.444074012335392,-0.014763024026951985,9
24.45407567927988,-0.026247457574190877,9
24.46407734622437,-0.03802880667576554,9
24.47407901316886,-0.040518139420613254,9
24.484080680113355,-0.05511215772859446,9
24.494082347057844,-0.08580334507085165,9
24.504084014002334,-0.12182153904538302,9
24.514085680946824,-0.15110850527584693,9
24.524087347891317,-0.17737775099482253,9
24.534089014835807,-0.22092023227829333,9
24.544090681780297,-0.28574286761636264,9
24.554092348724787,-0.30993394538639035,9
24.56409401566928,-0.3602761636240256,9
24.57409568261377,-0.419871543712022,9
24.58409734955826,-0.4619496458860105,9
24.594099016502753,-0.5092205814135694,9
24.604100683447243,-0.5497654605511934,9
24.614102350391732,-0.600025172069856,9
24.624104017336222,-0.6434161637825752,9
24.634105684280716,-0.6761141966154866,9
24.644107351225205,-0.7145237080170906,9
24.654109018169695,-0.726569423381179,9
24.664110685114185,-0.7436223329748556,9
24.67411235205868,-0.7963840561868805,9
24.684114019003168,-0.7787986801830097,9
24.694115685947658,-0.7880169149239894,9
24.70411735289215,-0.7581378830579151,9
24.71411901983664,-0.7283914904996217,9
24.72412068678113,-0.698887063081446,9
24.73412235372562,-0.6892834852048998,9
24.744124020670114,-0.6261189475632871,9
24.754125687614604,-0.5740797294456098,9
24.764127354559093,-0.526385529143869,9
24.774129021503583,-0.4334828346354706,9
24.784130688448077,-0.3660898028425638,9
24.794132355392566,-0.2986748916110758,9
24.804134022337056,-0.20724158451747973,9
24.81413568928155,-0.10432924446110023,9
24.82413735622604,-0.04751489261290454,9
24.83413902317053,0.06362338638930737,9
24.84414069011502,0.12698145489537108,9
24.854142357059512,0.2026363133617809,9
24.864144024004002,0.3257201628557792,9
24.87414569094849,0.384517567880465,9
24.88414735789298,0.4631068671721845,9
24.894149024837475,0.5371480569412345,9
24.904150691781965,0.5896580890109073,9
24.914152358726454,0.6589355108026024,9
24.924154025670948,0.6888911442658605,9
24.934155692615438,0.6995048417967995,9
24.944157359559927,0.7670579197212737,9
24.954159026504417,0.7583349053274029,9
24.96416069344891,0.7798445302837556,9
24.9741623603934,0.7708879913327644,9
24.98416402733789,0.7636416176887663,9
24.99416569428238,0.7636022319646083,9
25.004167361226873,0.7348174952622706,9
25.014169028171363,0.7208172616177848,9
25.024170695115853,0.6748421836044943,9
25.034172362060346,0.6331986359590864,9
25.044174029004836,0.5791967344031275,9
25.054175695949326,0.545883471013446,9
25.064177362893815,0.5040331630174674,9
25.07417902983831,0.45269627061874357,9
25.0841806967828,0.39420371746401855,9
25.09418236372729,0.3442638644627898,9
25.104184030671778,0.296310533985925,9
25.11418569761627,0.25821589840852616,9
25.12418736456076,0.19700756710204,9
25.13418903150525,0.18754617409441782,9
25.144190698449744,0.13464894988681597,9
25.154192365394234,0.09644239677801625,9
25.164194032338724,0.07401995172015627,9
25.174195699283214,0.0662164996778054,9
25.184197366227707,0.025375607985780892,9
25.194199033172197,0.026784567145941202,9
25.204200700116687,0.02920601522868807,9
25.214202367061176,0.010479377335963864,9
25.22420403400567,0.005463537267483011,9
25.23420570095016,-0.0006590870078071434,9
25.24420736789465,-0.006527970650000991,9
25.25420903483914,0.01077549046024222,9
25.264210701783632,-0.007011689485147525,9
25.274212368728122,0.012024864019647483,9
25.284214035672612,-0.016156410242568274,9
25.294215702617105,0.0004720280648022228,9
25.304217369561595,-0.00477593323425673,9
25.314219036506085,-0.01158487456184156,9
25.324220703450575,-0.035047431784077,9
25.334222370395068,-0.043497268784713786,9
25.344224037339558,-0.06605351798752697,9
25.354225704284048,-0.09742197284042688,9
25.364227371228537,-0.1342104947689053,9
25.37422903817303,-0.17035183154040887,9
25.38423070511752,-0.1963740527464218,9
25.39423237206201,-0.2548453486601791,9
25.404234039006504,-0.2764961337250038,9
25.414235705950993,-0.3374823781756795,9
25.424237372895483,-0.3789895079221773,9
25.434239039839973,-0.41655528830767474,9
25.444240706784466,-0.4726460391981146,9
25.454242373728956,-0.5231441949179845,9
25.464244040673446,-0.552118534124464,9
25.474245707617936,-0.618226820109777,9
25.48424737456243,-0.6697426895364712,9
25.49424904150692,-0.7176069639028353,9
25.50425070845141,-0.7268086311217945,9
25.514252375395902,-0.7571633948220958,9
25.52425404234039,-0.7765737633765217,9
25.53425570928488,-0.7720658336466214,9
25.54425737622937,-0.770079824751635,9
25.554259043173865,-0.758556831425204,9
25.564260710118354,-0.7399483716850036,9
25.574262377062844,-0.7423915374966421,9
25.584264044007334,-0.6838012125733667,9
25.594265710951827,-0.6522720125903998,9
25.604267377896317,-0.5860839193580009,9
25.614269044840807,-0.541504396213418,9
25.6242707117853,-0.48544002893573396,9
25.63427237872979,-0.40138396166657386,9
25.64427404567428,-0.3448527475247494,9
25.65427571261877,-0.25869548316237767,9
25.664277379563263,-0.1776847861772344,9
25.674279046507753,-0.07848858785918982,9
25.684280713452242,0.016301573564336404,9
25.694282380396732,0.0836506330647699,9
25.704284047341226,0.19308620203238733,9
25.714285714285715,0.25791509179000643,9
25.724287381230205,0.3451644374683885,9
25.7342890481747,0.40294238687714334,9
25.744290715119188,0.5005576516590772,9
25.754292382063678,0.5488322372226225,9
25.764294049008168,0.6101067748712298,9
25.77429571595266,0.654573086849491,9
25.78429738289715,0.6933166626976788,9
25.79429904984164,0.7551886581122322,9
25.80430071678613,0.7601890377385734,9
25.814302383730624,0.7744582200990519,9
25.824304050675114,0.7672951257763679,9
25.834305717619603,0.7854979792584763,9
25.844307384564097,0.7684872923859001,9
25.854309051508586,0.7253118836111061,9
25.864310718453076,0.7228802991092389,9
25.874312385397566,0.6972207265553092,9
25.88431405234206,0.6493773896962526,9
25.89431571928655,0.6197366107881533,9
25.90431738623104,0.575041247046821,9
25.91431905317553,0.5080247773657897,9
25.924320720120022,0.46903482305553246,9
25.934322387064512,0.4245283750813297,9
25.944324054009,0.36860683736968897,9
25.954325720953495,0.32315331763258975,9
25.964327387897985,0.2835806817829756,9
25.974329054842475,0.23701544642684297,9
25.984330721786964,0.18907150925482377,9
25.994332388731458,0.16491769527201652,9
26.004334055675947,0.12136895855991578,9
26.014335722620437,0.10592862788188735,9
26.024337389564927,0.06555581643872326,9
26.03433905650942,0.02672212903854529,9
26.04434072345391,0.013881633061292586,9
26.0543423903984,0.01821001904495599,9
26.06434405734289,-0.0029653873445006987,9
26.074345724287383,-0.006681563232984531,9
26.084347391231873,0.011589039349531033,9
26.094349058176363,-0.008651296689403815,9
26.104350725120856,-0.002932225801290525,9
26.114352392065346,0.003079031659612162,9
26.124354059009836,0.01420471359714893,9
26.134355725954325,-0.012893013553818817,9
26.14435739289882,0.0010558015429611295,9
26.15435905984331,-0.012548855582120917,9
26.1643607267878,-0.021847752742445176,9
26.174362393732288,-0.03868704882888892,9
26.18436406067678,-0.06064413307637319,9
26.19436572762127,-0.0559134096577799,9
26.20436739456576,-0.0797384825536079,9
26.214369061510254,-0.12625009395198872,9
26.224370728454744,-0.1629638040049457,9
26.234372395399234,-0.18459514246027012,9
26.244374062343724,-0.23236705664246932,9
26.254375729288217,-0.24485181917996174,9
26.264377396232707,-0.3019978274612182,9
26.274379063177197,-0.36260009529964454,9
26.284380730121686,-0.40609412544108275,9
26.29438239706618,-0.4592210479580444,9
26.30438406401067,-0.5056880528525888,9
26.31438573095516,-0.5493472114940277,9
26.324387397899653,-0.5830419344711499,9
26.334389064844142,-0.6479201842534259,9
26.344390731788632,-0.6686807366011503,9
26.354392398733122,-0.7097108860705246,9
26.364394065677615,-0.7192674175937699,9
26.374395732622105,-0.7713358202666822,9
26.384397399566595,-0.7716423994978462,9
26.394399066511085,-0.783431205942328,9
26.404400733455578,-0.7720794087531333,9
26.414402400400068,-0.7626219593050407,9
26.424404067344557,-0.7372010650203842,9
26.43440573428905,-0.7201071661840402,9
26.44440740123354,-0.6967802157119639,9
26.45440906817803,-0.6317525854209386,9
26.46441073512252,-0.5859083106882385,9
26.474412402067014,-0.5038350797985072,9
26.484414069011503,-0.4566815906620201,9
26.494415735955993,-0.39970955468463887,9
26.504417402900483,-0.3190440797604437,9
26.514419069844976,-0.2258055957087241,9
26.524420736789466,-0.14474722934589937,9
26.534422403733956,-0.05940300652842884,9
26.54442407067845,0.04028746987688721,9
26.55442573762294,0.12230516142601393,9
26.56442740456743,0.20590104500370907,9
26.57442907151192,0.2865754667527322,9
26.584430738456412,0.39440437330746053,9
26.5944324054009,0.4532009565406207,9
26.60443407234539,0.5153166571267328,9
26.61443573928988,0.5753937987968267,9
26.624437406234374,0.6319329966185624,9
26.634439073178864,0.6798602765366333,9
26.644440740123354,0.7118905729139079,9
26.654442407067847,0.7419774000688117,9
26.664444074012337,0.7710408116996769,9
26.674445740956827,0.7889028005011337,9
26.684447407901317,0.7735230713054339,9
26.69444907484581,0.7768910485083712,9
26.7044507417903,0.7582827674045541,9
26.71445240873479,0.7413183994256182,9
26.72445407567928,0.7046052664596046,9
26.734455742623773,0.6764472549865137,9
26.744457409568263,0.6468245285832176,9
26.754459076512752,0.5922927456354045,9
26.764460743457242,0.5443992294369738,9
26.774462410401735,0.5121878579507878,9
26.784464077346225,0.4580430182424069,9
26.794465744290715,0.4065548784004695,9
26.80446741123521,0.36271501806954376,9
26.814469078179698,0.311318698944488,9
26.824470745124188,0.27101183827549197,9
26.834472412068678,0.22212375725099004,9
26.84447407901317,0.17166266978784306,9
26.85447574595766,0.15290710831076063,9
26.86447741290215,0.1227840710406659,9
26.87447907984664,0.08651322435446693,9
26.884480746791134,0.0468775286803896,9
26.894482413735624,0.04197738824018009,9
26.904484080680113,0.023711514794950633,9
26.914485747624607,0.018834475077378714,9
26.924487414569096,0.0034102505768474,9
26.934489081513586,0.009316410598459751,9
26.944490748458076,-0.01807928854461468,9
26.95449241540257,-0.0022476041176254604,9
26.96449408234706,0.005760861702111203,9
26.97449574929155,0.008939091810151609,9
26.98449741623604,0.009201166772169212,9
26.994499083180532,-0.0003041907108255848,9
27.004500750125022,-0.006819333775667771,9
27.01450241706951,-0.013677064777876625,9
27.024504084014005,-0.021434977616583008,9
27.034505750958495,-0.02008675026014088,9
27.044507417902985,-0.031775982750604545,9
27.054509084847474,-0.06999055637601576,9
27.064510751791968,-0.08000730206597789,9
27.074512418736457,-0.10452860632074773,9
27.084514085680947,-0.15685688461868952,9
27.094515752625437,-0.20447246212497822,9
27.10451741956993,-0.23675403278828497,9
27.11451908651442,-0.25430363858004973,9
27.12452075345891,-0.30977624055817177,9
27.134522420403403,-0.37327634484030847,9
27.144524087347893,-0.4095573432524166,9
27.154525754292383,-0.4754694674996322,9
27.164527421236873,-0.5107623020375506,9
27.174529088181366,-0.5458393925032435,9
27.184530755125856,-0.6224908098788557,9
27.194532422070345,-0.6521961841363694,9
27.204534089014835,-0.682327916208378,9
27.21453575595933,-0.7163120656521577,9
27.22453742290382,-0.7421452205083221,9
27.234539089848308,-0.766695966609007,9
27.2445407567928,-0.7763126158181808,9
27.25454242373729,-0.7840323108706865,9
27.26454409068178,-0.7614113051731043,9
27.27454575762627,-0.7334104011130078,9
27.284547424570764,-0.7328813570366373,9
27.294549091515254,-0.7009413701114436,9
27.304550758459744,-0.6636731500613181,9
27.314552425404234,-0.6209851874826663,9
27.324554092348727,-0.5599233727145883,9
27.334555759293217,-0.5134503039342515,9
27.344557426237706,-0.4301671702574304,9
27.3545590931822,-0.35695428694116943,9
27.36456076012669,-0.2886711108851266,9
27.37456242707118,-0.1946613490963492,9
27.38456409401567,-0.10445057097622394,9
27.394565760960162,-0.03507201368150206,9
27.404567427904652,0.08120115840983659,9
27.414569094849142,0.14451508491950124,9
27.424570761793632,0.2535312621613952,9
27.434572428738125,0.3310404531639963,9
27.444574095682615,0.4074924324314054,9
27.454575762627105,0.4621993485903888,9
27.464577429571595,0.5389420078332555,9
27.474579096516088,0.6008925001804263,9
27.484580763460578,0.6570771603038144,9
27.494582430405067,0.7020814790020599,9
27.50458409734956,0.7258497412505218,9
27.51458576429405,0.7470142071219874,9
27.52458743123854,0.7719208836346704,9
27.53458909818303,0.7797325534964824,9
27.544590765127523,0.7719216444259368,9
27.554592432072013,0.7726616864263481,9
27.564594099016503,0.7685568123511763,9
27.574595765960993,0.7198221084884567,9
27.584597432905486,0.7090515789575145,9
27.594599099849976,0.6459114097330854,9
27.604600766794466,0.6151429789657927,9
27.61460243373896,0.5956305267190651,9
27.62460410068345,0.5443824579417923,9
27.63460576762794,0.46976349131345346,9
27.64460743457243,0.4187241793228381,9
27.65460910151692,0.39357087495444754,9
27.66461076846141,0.34454070121665453,9
27.6746124354059,0.28878154956254615,9
27.68461410235039,0.2533485481263159,9
27.694615769294884,0.2173651889214075,9
27.704617436239374,0.16966270883676526,9
27.714619103183864,0.12703425159343407,9
27.724620770128357,0.1236812835243178,9
27.734622437072847,0.07225776119334097,9
27.744624104017337,0.06503069265264988,9
27.754625770961827,0.03477701938065657,9
27.76462743790632,0.04311076742863659,9
27.77462910485081,0.0034097778307579027,9
27.7846307717953,0.004439441645692615,9
27.79463243873979,-0.0010738570014992592,9
27.804634105684283,-0.005049222022984377,9
27.814635772628773,-0.008551195730025626,9
27.824637439573262,-0.015468635716936933,9
27.834639106517756,-0.009866682625670425,9
27.844640773462245,0.006379850438799773,9
27.854642440406735,-0.005791497912974104,9
27.864644107351225,-0.005737206389640716,9
27.87464577429572,-0.024503833300704977,9
27.884647441240208,-0.016302835725751707,9
27.894649108184698,-0.031831853798865294,9
27.904650775129188,-0.0659805487739411,9
27.91465244207368,-0.09568211021397276,9
27.92465410901817,-0.11106528916475933,9
27.93465577596266,-0.13732593955829994,9
27.944657442907154,-0.15406732753600796,9
27.954659109851644,-0.22965785847070858,9
27.964660776796133,-0.2534568080231002,9
27.974662443740623,-0.30001989587389466,9
27.984664110685117,-0.3449933248119557,9
27.994665777629606,-0.40237664711579274,9
28.004667444574096,-0.4359771105112313,9
28.014669111518586,-0.477096005470928,9
28.02467077846308,-0.548368569410111,9
28.03467244540757,-0.5803907338005061,9
28.04467411235206,-0.6288241074735201,9
28.054675779296552,-0.6897562916070885,9
28.064677446241042,-0.6890616070054586,9
28.07467911318553,-0.7388373678478654,9
28.08468078013002,-0.7559342004636572,9
28.094682447074515,-0.7744935053669927,9
28.104684114019005,-0.7775808856656863,9
28.114685780963494,-0.7694658208627873,9
28.124687447907984,-0.765979918344458,9
28.134689114852478,-0.7581242571574488,9
28.144690781796967,-0.7213515016986164,9
28.154692448741457,-0.6879336961290784,9
28.164694115685947,-0.6594540989841094,9
28.17469578263044,-0.5895301032774652,9
28.18469744957493,-0.5251337900995489,9
28.19469911651942,-0.4721763791880364,9
28.204700783463913,-0.4011998204355981,9
28.214702450408403,-0.3310442214628922,9
28.224704117352893,-0.2429393017915102,9
28.234705784297383,-0.15776999563657454,9
28.244707451241876,-0.06994857523606239,9
28.254709118186366,0.03993514608242363,9
28.264710785130855,0.1321378169020113,9
28.274712452075345,0.1998822689151275,9
28.28471411901984,0.25206563982140495,9
28.29471578596433,0.3744931545015198,9
28.304717452908818,0.42814033624379083,9
28.31471911985331,0.4956891039057855,9
28.3247207867978,0.5595802466956037,9
28.33472245374229,0.6161492909470541,9
28.34472412068678,0.6745251142837336,9
28.354725787631274,0.7163942065921839,9
28.364727454575764,0.7451240422548064,9
28.374729121520254,0.7725282161240588,9
28.384730788464744,0.7840750075093967,9
28.394732455409237,0.7686838461295687,9
28.404734122353727,0.784001192411791,9
28.414735789298216,0.7610171193418647,9
28.42473745624271,0.7349883312451748,9
28.4347391231872,0.7147651300545668,9
28.44474079013169,0.6902140113457916,9
28.45474245707618,0.6511025537858351,9
28.464744124020672,0.6135925115203267,9
28.474745790965162,0.5713628184076429,9
28.484747457909652,0.5130636280479166,9
28.494749124854142,0.4626620106413178,9
28.504750791798635,0.4117888506716273,9
28.514752458743125,0.380751879924087,9
28.524754125687615,0.30720485131098696,9
28.534755792632108,0.2807086843977299,9
28.544757459576598,0.21974332868036103,9
28.554759126521088,0.17976887970562122,9
28.564760793465577,0.15767885700367823,9
28.57476246041007,0.1323765389410715,9
28.58476412735456,0.08863077696174669,9
28.59476579429905,0.07741873022119612,9
28.60476746124354,0.037334910538436544,9
28.614769128188033,0.037575454425608466,9
28.624770795132523,0.027862208102118056,9
28.634772462077013,0.01872306465990936,9
28.644774129021506,0.011599827644237223,9
28.654775795965996,0.021759746142492018,9
28.664777462910486,-0.017011543435579167,9
28.674779129854976,-0.003803793770533706,9
28.68478079679947,0.010666740344243725,9
28.69478246374396,-0.007770419502783195,9
28.70478413068845,-0.013670676449405792,9
28.71478579763294,0.011395908532013787,9
28.72478746457743,-0.017766980221304136,9
28.73478913152192,-0.009338950444754473,9
28.74479079846641,-0.041992915163413726,9
28.754792465410905,-0.06672375296401846,9
28.764794132355394,-0.051744230088172395,9
28.774795799299884,-0.07035335317279916,9
28.784797466244374,-0.11300472546341807,9
28.794799133188867,-0.14817724522237444,9
28.804800800133357,-0.19135196366573295,9
28.814802467077847,-0.2434766925265971,9
28.824804134022337,-0.25997346267819776,9
28.83480580096683,-0.31809131733221313,9
28.84480746791132,-0.36132851100720287,9
28.85480913485581,-0.4091932819692989,9
