time,ppg_signal,subject_id
0.0,0.00418943616721943,10
0.010001666944490749,0.09610774440086996,10
0.020003333888981498,0.19981370718958455,10
0.030005000833472247,0.2826484436165122,10
0.040006667777962995,0.37386376784506614,10
0.050008334722453744,0.44790488140384693,10
0.06001000166694449,0.5368428237022003,10
0.07001166861143523,0.6218943124011972,10
0.08001333555592599,0.6676417480671035,10
0.09001500250041675,0.705934621485159,10
0.10001666944490749,0.7352405615908504,10
0.11001833638939823,0.7622892647952212,10
0.12002000333388899,0.7797139317753851,10
0.13002167027837974,0.7796630311077637,10
0.14002333722287047,0.7572634179290283,10
0.15002500416736123,0.7439547711912974,10
0.16002667111185198,0.7155047432486528,10
0.17002833805634274,0.7014677278288242,10
0.1800300050008335,0.6413989639469201,10
0.19003167194532422,0.5967007404394881,10
0.20003333888981498,0.5525518501024843,10
0.21003500583430573,0.4895304132704103,10
0.22003667277879646,0.4237861133771797,10
0.23003833972328722,0.39367812665286633,10
0.24004000666777797,0.3351386022845739,10
0.2500416736122687,0.28281492412963033,10
0.2600433405567595,0.2182354165585413,10
0.2700450075012502,0.1533611954679129,10
0.28004667444574094,0.13914171648822699,10
0.2900483413902317,0.10328862559716537,10
0.30005000833472245,0.07902605964479942,10
0.31005167527921323,0.06013679842859533,10
0.32005334222370396,0.029679486328513718,10
0.3300550091681947,0.006683181570076547,10
0.3400566761126855,-8.195997770636503e-05,10
0.3500583430571762,-0.0029174717881856093,10
0.360060010001667,0.005272646006745123,10
0.3700616769461577,0.006073826710468679,10
0.38006334389064844,0.01857299373578807,10
0.3900650108351392,0.0022435603078175934,10
0.40006667777962995,0.009949662874591753,10
0.4100683447241207,-0.017199704298166134,10
0.42007001166861146,-0.010822944157607792,10
0.4300716786131022,-0.030442993094386327,10
0.4400733455575929,-0.04385931539771662,10
0.4500750125020837,-0.05925223104402774,10
0.46007667944657443,-0.07497716171973881,10
0.4700783463910652,-0.12427360978734676,10
0.48008001333555594,-0.15352423377076224,10
0.49008168028004667,-0.1829801365693119,10
0.5000833472245374,-0.24042667219688899,10
0.5100850141690282,-0.284958179428585,10
0.520086681113519,-0.35570427648354136,10
0.5300883480580096,-0.37597906655536273,10
0.5400900150025004,-0.4498117175219777,10
0.5500916819469912,-0.5109479433558464,10
0.5600933488914819,-0.5722818473808121,10
0.5700950158359727,-0.6223126814802984,10
0.5800966827804634,-0.6716471712292345,10
0.5900983497249542,-0.7131855224929109,10
0.6001000166694449,-0.7395161595991436,10
0.6101016836139357,-0.7533450638289141,10
0.6201033505584265,-0.7843305518091036,10
0.6301050175029171,-0.7719548683313117,10
0.6401066844474079,-0.7810870202890275,10
0.6501083513918987,-0.7712592773649878,10
0.6601100183363894,-0.7153200323892506,10
0.6701116852808802,-0.6917607284382999,10
0.680113352225371,-0.6453943580765251,10
0.6901150191698616,-0.5764261145154315,10
0.7001166861143524,-0.5293324723387896,10
0.7101183530588432,-0.44346318482305963,10
0.720120020003334,-0.3670824123051126,10
0.7301216869478246,-0.2611823555340589,10
0.7401233538923154,-0.16757562726260655,10
0.7501250208368062,-0.06557459095916884,10
0.7601266877812969,0.0450477590179422,10
0.7701283547257877,0.12956548927049155,10
0.7801300216702785,0.22412685415722813,10
0.7901316886147691,0.3051927235619104,10
0.8001333555592599,0.39874815424457777,10
0.8101350225037507,0.4779342050263819,10
0.8201366894482414,0.5635372521755212,10
0.8301383563927321,0.6154909268000505,10
0.8401400233372229,0.6748178401599703,10
0.8501416902817136,0.72547499950148,10
0.8601433572262044,0.7666398355761236,10
0.8701450241706952,0.7741049736890623,10
0.8801466911151858,0.7806163535088781,10
0.8901483580596766,0.7645681440849419,10
0.9001500250041674,0.7639139613533916,10
0.9101516919486582,0.7596493682403769,10
0.9201533588931489,0.7155121741862984,10
0.9301550258376396,0.6556712346286137,10
0.9401566927821304,0.6389486908797938,10
0.9501583597266211,0.5764756779952227,10
0.9601600266711119,0.5487960812815085,10
0.9701616936156027,0.48176530616938334,10
0.9801633605600933,0.41076688991142285,10
0.9901650275045841,0.3708206935462754,10
1.0001666944490748,0.29767887438716556,10
1.0101683613935657,0.2762795857621166,10
1.0201700283380564,0.20819524570030484,10
1.030171695282547,0.17478456824219823,10
1.040173362227038,0.1341467157206283,10
1.0501750291715286,0.09367071670894986,10
1.0601766961160193,0.06214509495361093,10
1.0701783630605102,0.04637287404878723,10
1.0801800300050008,0.048686273390839835,10
1.0901816969494915,0.00039631164691972254,10
1.1001833638939824,0.004712771821414125,10
1.110185030838473,-0.018217270336145536,10
1.1201866977829638,0.017031253050374336,10
1.1301883647274547,-0.0012694080658749234,10
1.1401900316719453,0.02574823940565207,10
1.1501916986164362,0.012998487007186175,10
1.160193365560927,0.0018892503279514753,10
1.1701950325054176,0.0037628055491507172,10
1.1801966994499085,-0.009967043780038005,10
1.1901983663943991,-0.02887691448342065,10
1.2002000333388898,-0.04463971124541936,10
1.2102017002833807,-0.05168271273721678,10
1.2202033672278714,-0.08373017605635363,10
1.230205034172362,-0.1268653942485354,10
1.240206701116853,-0.14957192470687974,10
1.2502083680613436,-0.21918218451039756,10
1.2602100350058343,-0.255426923260289,10
1.2702117019503252,-0.3188035259760462,10
1.2802133688948159,-0.36468586206883036,10
1.2902150358393065,-0.39848738624475827,10
1.3002167027837974,-0.4521798081106532,10
1.310218369728288,-0.5287237867083747,10
1.3202200366727788,-0.5809117788211511,10
1.3302217036172697,-0.6378937160017462,10
1.3402233705617603,-0.6730089592893552,10
1.350225037506251,-0.6955764351904662,10
1.360226704450742,-0.7460416114670652,10
1.3702283713952326,-0.7731643959037433,10
1.3802300383397232,-0.7838219891119252,10
1.3902317052842141,-0.779347905530058,10
1.4002333722287048,-0.770277855335019,10
1.4102350391731955,-0.7436160447389167,10
1.4202367061176864,-0.7236502024174942,10
1.430238373062177,-0.6762754724290908,10
1.440240040006668,-0.6258594597739492,10
1.4502417069511586,-0.5750518068115691,10
1.4602433738956493,-0.5057124818859848,10
1.4702450408401402,-0.42535069348034815,10
1.4802467077846309,-0.3401659648373872,10
1.4902483747291215,-0.23464108519587745,10
1.5002500416736124,-0.14104294992704827,10
1.510251708618103,-0.04811794026956249,10
1.5202533755625938,0.05265489608314725,10
1.5302550425070847,0.13772780548557076,10
1.5402567094515753,0.25166385993920676,10
1.550258376396066,0.31777597564460985,10
1.560260043340557,0.4430596203101108,10
1.5702617102850476,0.5142894437384408,10
1.5802633772295382,0.5731615901436212,10
1.5902650441740291,0.6317358172339269,10
1.6002667111185198,0.6757472970125246,10
1.6102683780630105,0.7196891710122939,10
1.6202700450075014,0.755398184858948,10
1.630271711951992,0.7662914211321353,10
1.6402733788964827,0.7693877600829233,10
1.6502750458409736,0.7743551362504215,10
1.6602767127854643,0.7654282841271866,10
1.670278379729955,0.7429357610013639,10
1.6802800466744459,0.704129489421312,10
1.6902817136189365,0.6662065866181611,10
1.7002833805634272,0.6230711157266802,10
1.710285047507918,0.5591339593458228,10
1.7202867144524088,0.504405608918208,10
1.7302883813968994,0.47947959249200023,10
1.7402900483413903,0.3956117454950379,10
1.750291715285881,0.3502012176018703,10
1.7602933822303717,0.30561919038942653,10
1.7702950491748626,0.24186172805303166,10
1.7802967161193533,0.18912553402419258,10
1.7902983830638441,0.15700787160568402,10
1.8003000500083348,0.10112917895396295,10
1.8103017169528255,0.0976799002084088,10
1.8203033838973164,0.043161346126607256,10
1.830305050841807,0.04335866013208684,10
1.8403067177862977,0.01805017166544878,10
1.8503083847307886,0.021841716711502736,10
1.8603100516752793,0.025136473642208876,10
1.87031171861977,-0.002324462170704494,10
1.8803133855642609,0.0003472664048916484,10
1.8903150525087515,-0.009034347639627637,10
1.9003167194532422,-0.010925913265517345,10
1.910318386397733,-0.005972826739234416,10
1.9203200533422238,-0.003842223432565167,10
1.9303217202867144,-0.006043794269130878,10
1.9403233872312053,-0.016308817758348082,10
1.950325054175696,-0.02744619826576309,10
1.9603267211201867,-0.05066295262651377,10
1.9703283880646776,-0.06534372274772365,10
1.9803300550091683,-0.10005226322976267,10
1.990331721953659,-0.14095185975411556,10
2.0003333888981496,-0.18391537618931655,10
2.0103350558426407,-0.22168591660489234,10
2.0203367227871314,-0.2746232581145947,10
2.030338389731622,-0.32089826383355946,10
2.0403400566761127,-0.36927148007633126,10
2.0503417236206034,-0.4289112492963635,10
2.060343390565094,-0.4695294589782188,10
2.070345057509585,-0.532113081424299,10
2.080346724454076,-0.5959105260512036,10
2.0903483913985665,-0.6008785079082973,10
2.100350058343057,-0.6716628562826775,10
2.110351725287548,-0.7188464417116228,10
2.1203533922320386,-0.7306756700376312,10
2.1303550591765297,-0.760562428246464,10
2.1403567261210203,-0.7894656267786164,10
2.150358393065511,-0.7994249150822325,10
2.1603600600100017,-0.77107009674162,10
2.1703617269544924,-0.7455282249738275,10
2.180363393898983,-0.7187751223408058,10
2.190365060843474,-0.6685941620606679,10
2.200366727787965,-0.6196147909372692,10
2.2103683947324555,-0.5546462835241139,10
2.220370061676946,-0.4702519724076629,10
2.230371728621437,-0.39760377205004355,10
2.2403733955659275,-0.2803379315908,10
2.2503750625104186,-0.21535571521908925,10
2.2603767294549093,-0.1015787459357123,10
2.2703783963994,-0.025473680587818636,10
2.2803800633438907,0.096677667866374,10
2.2903817302883813,0.17267452993660928,10
2.3003833972328724,0.27775594464426984,10
2.310385064177363,0.3510219757581913,10
2.320386731121854,0.4507900395460683,10
2.3303883980663445,0.5227380333454821,10
2.340390065010835,0.5951403948169354,10
2.350391731955326,0.6259660402506471,10
2.360393398899817,0.7095807665157067,10
2.3703950658443076,0.7356131868028668,10
2.3803967327887983,0.7751743825312536,10
2.390398399733289,0.7690458173894329,10
2.4004000666777796,0.7893346722277691,10
2.4104017336222703,0.7652154309066547,10
2.4204034005667614,0.7623824122787561,10
2.430405067511252,0.724968674797078,10
2.4404067344557427,0.6925902178654489,10
2.4504084014002334,0.6654687408385517,10
2.460410068344724,0.6126860383791856,10
2.4704117352892148,0.5599410263905612,10
2.480413402233706,0.4915854597825584,10
2.4904150691781965,0.4389151387974009,10
2.5004167361226872,0.403277550028985,10
2.510418403067178,0.3498673174916018,10
2.5204200700116686,0.27507627270278684,10
2.5304217369561592,0.22039642550493035,10
2.5404234039006504,0.17889761872863646,10
2.550425070845141,0.1487062271185662,10
2.5604267377896317,0.12207550368383369,10
2.5704284047341224,0.08007741566362435,10
2.580430071678613,0.06077151523222306,10
2.590431738623104,0.030568462615001568,10
2.600433405567595,0.026519952779407194,10
2.6104350725120855,0.010811325960012722,10
2.620436739456576,0.0014155553772741613,10
2.630438406401067,0.009446462552925658,10
2.6404400733455575,-0.0018735483629515963,10
2.6504417402900486,0.005591162211450513,10
2.6604434072345393,0.019051469760212315,10
2.67044507417903,0.015020230788542862,10
2.6804467411235207,0.004797424130259747,10
2.6904484080680113,-0.012067350207767783,10
2.700450075012502,-0.015164371445677338,10
2.710451741956993,-0.03928665551391264,10
2.720453408901484,-0.04962134624945588,10
2.7304550758459745,-0.08193523540324461,10
2.740456742790465,-0.1085401836670452,10
2.750458409734956,-0.13269034016350387,10
2.7604600766794465,-0.16379841930199607,10
2.7704617436239376,-0.24134685036735382,10
2.7804634105684283,-0.2893782427396883,10
2.790465077512919,-0.3234615885746482,10
2.8004667444574096,-0.37737536131599814,10
2.8104684114019003,-0.4260626812829813,10
2.820470078346391,-0.4798160699980455,10
2.830471745290882,-0.5455146628360915,10
2.8404734122353728,-0.6200670076265278,10
2.8504750791798634,-0.6495494157222351,10
2.860476746124354,-0.6727830780490853,10
2.8704784130688448,-0.7110843739670625,10
2.880480080013336,-0.7394381063293133,10
2.8904817469578266,-0.7767633860434097,10
2.9004834139023172,-0.772858938289677,10
2.910485080846808,-0.7798241543002081,10
2.9204867477912986,-0.7828055190710962,10
2.9304884147357892,-0.7459849289245958,10
2.9404900816802804,-0.7028406231024747,10
2.950491748624771,-0.665363020038009,10
2.9604934155692617,-0.6002418356702649,10
2.9704950825137524,-0.5317533136584264,10
2.980496749458243,-0.4558266306412386,10
2.9904984164027337,-0.3736594119120728,10
3.000500083347225,-0.287044226374537,10
3.0105017502917155,-0.19075484304503001,10
3.020503417236206,-0.08207422908387343,10
3.030505084180697,0.02723298621684431,10
3.0405067511251875,0.10770654651228007,10
3.050508418069678,0.20321539106699393,10
3.0605100850141693,0.30941902354266604,10
3.07051175195866,0.3846868999498288,10
3.0805134189031507,0.4859804411296504,10
3.0905150858476413,0.5460732491702307,10
3.100516752792132,0.6106188071518395,10
3.1105184197366227,0.6765330011513129,10
3.120520086681114,0.6991952829873785,10
3.1305217536256045,0.7357618809552765,10
3.140523420570095,0.7673150717248195,10
3.150525087514586,0.7767818858386113,10
3.1605267544590765,0.7781644519930527,10
3.170528421403567,0.7748536806132027,10
3.1805300883480583,0.7628631625909665,10
3.190531755292549,0.7195422497919776,10
3.2005334222370396,0.6901852828708298,10
3.2105350891815303,0.6437864778348146,10
3.220536756126021,0.6020211091834843,10
3.230538423070512,0.5273074656979623,10
3.2405400900150028,0.4743530921517639,10
3.2505417569594934,0.44412008677399334,10
3.260543423903984,0.38029091542899923,10
3.270545090848475,0.3248728999754038,10
3.2805467577929655,0.28033054682681535,10
3.2905484247374566,0.23265978611646437,10
3.3005500916819472,0.1741570638834697,10
3.310551758626438,0.13811769509799865,10
3.3205534255709286,0.10775811414139179,10
3.3305550925154193,0.08332586842635682,10
3.34055675945991,0.05889062409118459,10
3.350558426404401,0.02797147648672902,10
3.3605600933488917,0.0044882704207774085,10
3.3705617602933824,0.020667543508321777,10
3.380563427237873,-0.008056621829360962,10
3.3905650941823637,-0.01755325956820892,10
3.4005667611268544,0.009097526774387,10
3.4105684280713455,0.018335417782412357,10
3.420570095015836,0.012666415877355371,10
3.430571761960327,0.022032261207267104,10
3.4405734289048175,-0.02892939540128109,10
3.450575095849308,-0.00902270846138836,10
3.460576762793799,-0.040505716687506146,10
3.47057842973829,-0.040382808336166615,10
3.4805800966827807,-0.058324289270686266,10
3.4905817636272714,-0.08093680702617514,10
3.500583430571762,-0.10590634697389785,10
3.5105850975162527,-0.15962868352699253,10
3.5205867644607434,-0.1821442389660128,10
3.5305884314052345,-0.22801933687065098,10
3.540590098349725,-0.2924368491692821,10
3.550591765294216,-0.3495610664667882,10
3.5605934322387065,-0.406122638311132,10
3.570595099183197,-0.4452812856110138,10
3.5805967661276883,-0.5148830464026668,10
3.590598433072179,-0.557902850689408,10
3.6006001000166696,-0.6131392842461284,10
3.6106017669611603,-0.6589064276681438,10
3.620603433905651,-0.6947574872746982,10
3.6306051008501417,-0.7497302484362983,10
3.6406067677946328,-0.7745043564895651,10
3.6506084347391234,-0.7650731838134,10
3.660610101683614,-0.776662653215918,10
3.670611768628105,-0.7543972037280448,10
3.6806134355725955,-0.7636246749244687,10
3.690615102517086,-0.7320479885915062,10
3.7006167694615772,-0.7100892818944352,10
3.710618436406068,-0.6335454642781545,10
3.7206201033505586,-0.579803917797915,10
3.7306217702950493,-0.5179880127219049,10
3.74062343723954,-0.43847163344866863,10
3.7506251041840306,-0.3573291807178935,10
3.7606267711285217,-0.2669732276486525,10
3.7706284380730124,-0.15680751460689174,10
3.780630105017503,-0.04461111491586811,10
3.7906317719619937,0.037058470941658726,10
3.8006334389064844,0.13934363237446715,10
3.810635105850975,0.23606101015774758,10
3.820636772795466,0.30329538896157265,10
3.830638439739957,0.4197511318239002,10
3.8406401066844476,0.5012443195298584,10
3.8506417736289382,0.5708580250464911,10
3.860643440573429,0.6211924318981203,10
3.87064510751792,0.6898367889233978,10
3.8806467744624107,0.7426207048096096,10
3.8906484414069014,0.7580069717250362,10
3.900650108351392,0.7910633407221578,10
3.9106517752958827,0.7811389849121732,10
3.9206534422403734,0.7785865686352891,10
3.9306551091848645,0.7750656844650351,10
3.940656776129355,0.7279999703161972,10
3.950658443073846,0.7289646252253802,10
3.9606601100183365,0.667411902954625,10
3.970661776962827,0.6289381321894574,10
3.980663443907318,0.562820756327249,10
3.990665110851809,0.5383163132091077,10
4.000666777796299,0.4757124245987575,10
4.01066844474079,0.40988418845028735,10
4.020670111685281,0.3546344874792444,10
4.030671778629772,0.32411616560361417,10
4.040673445574263,0.24918733119760342,10
4.0506751125187535,0.23737620962383704,10
4.060676779463244,0.13983308414690615,10
4.070678446407735,0.12023029879946141,10
4.0806801133522255,0.10398092182625442,10
4.090681780296716,0.06011526803079681,10
4.100683447241207,0.02475732562559931,10
4.1106851141856975,0.046196427463820015,10
4.120686781130188,0.016793059097833823,10
4.130688448074679,0.00053364088774931,10
4.14069011501917,0.004938538347831605,10
4.150691781963661,-0.006136820081750424,10
4.160693448908152,0.014403506277417672,10
4.170695115852642,-0.007097074205838645,10
4.180696782797133,-0.020272798478286384,10
4.190698449741624,-0.00615735287733137,10
4.200700116686114,-0.019609715490929616,10
4.210701783630605,-0.005259836121212662,10
4.220703450575096,-0.024495323823225595,10
4.2307051175195864,-0.06313063772966557,10
4.240706784464077,-0.06614318560441368,10
4.250708451408569,-0.07349449378712625,10
4.260710118353059,-0.13058213772659216,10
4.27071178529755,-0.1625543873363836,10
4.280713452242041,-0.19451884018214582,10
4.290715119186531,-0.2460330009950908,10
4.300716786131022,-0.3208990632297395,10
4.310718453075513,-0.3512084528168461,10
4.320720120020003,-0.4195124338396028,10
4.330721786964494,-0.46589499155797326,10
4.340723453908985,-0.5318969335468281,10
4.350725120853475,-0.5770722562616801,10
4.360726787797966,-0.6267210799023434,10
4.370728454742458,-0.6769009267474302,10
4.380730121686948,-0.7250559291128946,10
4.390731788631439,-0.7520435950568982,10
4.40073345557593,-0.7690671605867464,10
4.41073512252042,-0.7817923873361402,10
4.420736789464911,-0.7669757611802681,10
4.430738456409402,-0.7618138844411506,10
4.440740123353892,-0.7452562371171434,10
4.450741790298383,-0.7193386828791909,10
4.460743457242874,-0.6783382074201529,10
4.470745124187364,-0.6300398231849649,10
4.480746791131855,-0.5855763599206699,10
4.490748458076347,-0.4798668271060888,10
4.500750125020837,-0.39309625526715325,10
4.510751791965328,-0.32623410235124306,10
4.520753458909819,-0.24498947539434116,10
4.530755125854309,-0.12115329154995325,10
4.5407567927988,-0.05176038846481492,10
4.550758459743291,0.06423806234271033,10
4.560760126687781,0.16566966630747396,10
4.570761793632272,0.25696306760704707,10
4.580763460576763,0.347379076106893,10
4.590765127521253,0.4306183437783899,10
4.600766794465745,0.5217499935565109,10
4.6107684614102356,0.586793825571729,10
4.620770128354726,0.6485793278278401,10
4.630771795299217,0.7034270947809383,10
4.640773462243708,0.7121808645935056,10
4.650775129188198,0.7763577876661975,10
4.660776796132689,0.7742876821587966,10
4.67077846307718,0.7830890171451165,10
4.68078013002167,0.7545481772816879,10
4.690781796966161,0.7839660543426252,10
4.700783463910652,0.7393208297530894,10
4.710785130855142,0.6896255071309781,10
4.720786797799634,0.6661105692912794,10
4.7307884647441245,0.6044857764909657,10
4.740790131688615,0.5584034632905374,10
4.750791798633106,0.5054414967963226,10
4.7607934655775965,0.4585208813307327,10
4.770795132522087,0.38605729978774017,10
4.780796799466578,0.34043003742472877,10
4.7907984664110685,0.29064974973931346,10
4.800800133355559,0.24419124764714129,10
4.81080180030005,0.20282934691813062,10
4.820803467244541,0.15731813234131337,10
4.830805134189032,0.12087981384069306,10
4.840806801133523,0.08644978964823154,10
4.8508084680780135,0.05454601191808313,10
4.860810135022504,0.03723348004562355,10
4.870811801966995,0.020399799115748518,10
4.8808134689114855,0.01755962947490696,10
4.890815135855976,0.010436825929570468,10
4.900816802800467,0.016585367282555333,10
4.9108184697449575,0.016342126551001212,10
4.920820136689448,0.0014422031929635266,10
4.930821803633939,-0.01662332104112528,10
4.9408234705784295,-0.017844905422178044,10
4.950825137522921,0.006360186084613861,10
4.960826804467412,-0.014759113887298461,10
4.970828471411902,-0.018426615321851678,10
4.980830138356393,-0.04144968915244466,10
4.990831805300884,-0.04542627713286448,10
5.0008334722453744,-0.0753487065100473,10
5.010835139189865,-0.08534190419185794,10
5.020836806134356,-0.11450253219022712,10
5.0308384730788465,-0.16059767266694058,10
5.040840140023337,-0.2140117240048352,10
5.050841806967828,-0.27222589029759475,10
5.0608434739123185,-0.3278299803619773,10
5.07084514085681,-0.3851139180993476,10
5.080846807801301,-0.4247163370670296,10
5.090848474745791,-0.4852396848835517,10
5.100850141690282,-0.5414817209456003,10
5.110851808634773,-0.5818194899065807,10
5.120853475579263,-0.6496983966028,10
5.130855142523754,-0.6598070036239283,10
5.140856809468245,-0.7299213606305726,10
5.150858476412735,-0.7430034206286448,10
5.160860143357226,-0.7577647465099618,10
5.170861810301717,-0.7926560921681353,10
5.180863477246208,-0.7872742219220572,10
5.190865144190699,-0.7718995554462696,10
5.20086681113519,-0.7326044542729554,10
5.21086847807968,-0.6970080682807511,10
5.220870145024171,-0.6759046499164768,10
5.230871811968662,-0.6042263044456263,10
5.240873478913152,-0.5409009883558576,10
5.250875145857643,-0.46089029974260953,10
5.260876812802134,-0.38972438891823225,10
5.270878479746624,-0.29909792003945557,10
5.280880146691115,-0.21347050789273117,10
5.290881813635606,-0.10918539177000292,10
5.300883480580097,-0.010774255731230378,10
5.310885147524588,0.0762296165478357,10
5.320886814469079,0.19525873604644436,10
5.330888481413569,0.2825499952810859,10
5.34089014835806,0.38257953618988433,10
5.350891815302551,0.4397549157018559,10
5.360893482247041,0.5381724808558642,10
5.370895149191532,0.6004396316269214,10
5.380896816136023,0.6540988601274256,10
5.390898483080513,0.6888992588756195,10
5.400900150025004,0.7384125420833991,10
5.410901816969495,0.7723989189093593,10
5.420903483913986,0.7703205263735596,10
5.430905150858477,0.783434354743108,10
5.440906817802968,0.7716013617601756,10
5.450908484747458,0.7663763915411981,10
5.460910151691949,0.7197723176688823,10
5.47091181863644,0.6919425053677615,10
5.48091348558093,0.6615623292537588,10
5.490915152525421,0.6201733294790629,10
5.500916819469912,0.5511869193132071,10
5.510918486414402,0.4903848850362055,10
5.520920153358893,0.43916973759097805,10
5.5309218203033845,0.39236589369084346,10
5.540923487247875,0.34592651501580096,10
5.550925154192366,0.2821575570470256,10
5.5609268211368565,0.22993056430609868,10
5.570928488081347,0.20633871314586383,10
5.580930155025838,0.13938870243742332,10
5.590931821970329,0.09696568096726889,10
5.600933488914819,0.08695106400059568,10
5.61093515585931,0.058670307874204464,10
5.620936822803801,0.02717651411329445,10
5.630938489748291,0.001504777801379701,10
5.640940156692782,0.020413012590885078,10
5.6509418236372735,0.0002994775196077564,10
5.660943490581764,0.0006557431507933901,10
5.670945157526255,-0.0035923586710760766,10
5.6809468244707455,0.00808906033300154,10
5.690948491415236,0.016056661962191337,10
5.700950158359727,0.02190847361520774,10
5.7109518253042175,-0.0024015511895792117,10
5.720953492248708,-0.008057961725147604,10
5.730955159193199,-0.009117891257174214,10
5.7409568261376895,-0.02942232815249021,10
5.75095849308218,-0.05123584066392103,10
5.760960160026672,-0.09585792211904712,10
5.7709618269711624,-0.10393612924167207,10
5.780963493915653,-0.14316532416011507,10
5.790965160860144,-0.1825367101108949,10
5.8009668278046345,-0.22920595542234115,10
5.810968494749125,-0.2824012749861941,10
5.820970161693616,-0.3303258100761485,10
5.8309718286381065,-0.38357064901887544,10
5.840973495582597,-0.45028615219577517,10
5.850975162527088,-0.48722022283840255,10
5.8609768294715785,-0.5491487423707185,10
5.870978496416069,-0.6029124774445511,10
5.880980163360561,-0.6672409384973865,10
5.890981830305051,-0.6804647563805857,10
5.900983497249542,-0.7164788081186326,10
5.910985164194033,-0.7607214670088803,10
5.920986831138523,-0.7696907205188657,10
5.930988498083014,-0.7730652130817669,10
5.940990165027505,-0.7812186481858565,10
5.950991831971995,-0.7647340640567751,10
5.960993498916486,-0.7211075037494559,10
5.970995165860977,-0.699565626606414,10
5.9809968328054675,-0.6513565542187184,10
5.990998499749958,-0.6016100770441283,10
6.00100016669445,-0.5318970264095859,10
6.01100183363894,-0.4545925848353498,10
6.021003500583431,-0.364058945830458,10
6.031005167527922,-0.2731115938515575,10
6.041006834472412,-0.18294108709584922,10
6.051008501416903,-0.08414431995809768,10
6.061010168361394,0.02812903830517845,10
6.071011835305884,0.11579849242590252,10
6.081013502250375,0.19579502127907011,10
6.091015169194866,0.3135472334283167,10
6.101016836139356,0.39537021975812703,10
6.111018503083848,0.47359744396337544,10
6.121020170028339,0.5485925917173576,10
6.131021836972829,0.6082999062082307,10
6.14102350391732,0.6545478809971649,10
6.151025170861811,0.7136138103342952,10
6.161026837806301,0.747066579359255,10
6.171028504750792,0.771777631236806,10
6.181030171695283,0.7767151061802382,10
6.191031838639773,0.7766408321090624,10
6.201033505584264,0.7678268474540412,10
6.211035172528755,0.7424177682049882,10
6.221036839473245,0.7146738269720073,10
6.231038506417737,0.6869309491403924,10
6.241040173362228,0.6343031743103241,10
6.251041840306718,0.5768090707881326,10
6.261043507251209,0.5542512593393125,10
6.2710451741957,0.4847984036071505,10
6.28104684114019,0.4424033483488991,10
6.291048508084681,0.3712735763132008,10
6.301050175029172,0.29955060725290433,10
6.311051841973662,0.2461170112073906,10
6.321053508918153,0.2293797367474803,10
6.331055175862644,0.161238867028045,10
6.341056842807134,0.12898408090253727,10
6.351058509751626,0.09196267471851187,10
6.361060176696117,0.0711585167669941,10
6.371061843640607,0.03556820591453284,10
6.381063510585098,0.02695069459988383,10
6.391065177529589,-0.011145243699992698,10
6.401066844474079,0.011059196098645988,10
6.41106851141857,0.007212130985707,10
6.421070178363061,0.004126437103318217,10
6.431071845307551,0.0019048759344290483,10
6.441073512252042,0.007482358731894005,10
6.451075179196533,0.005351724675211439,10
6.461076846141024,-0.005843025783631578,10
6.471078513085515,0.005204179634811776,10
6.4810801800300055,-0.009583141777199173,10
6.491081846974496,-0.021869148779311426,10
6.501083513918987,-0.03196867429681261,10
6.5110851808634775,-0.06145202370712344,10
6.521086847807968,-0.09522329301427153,10
6.531088514752459,-0.12508463786105506,10
6.54109018169695,-0.16328378761918833,10
6.55109184864144,-0.20447030264517818,10
6.561093515585931,-0.2377611173904983,10
6.571095182530422,-0.3032219058062697,10
6.581096849474913,-0.3569280957222233,10
6.591098516419404,-0.389507379349351,10
6.6011001833638945,-0.4608756423040312,10
6.611101850308385,-0.5089084431114659,10
6.621103517252876,-0.5661794972133034,10
6.6311051841973665,-0.6231766341989328,10
6.641106851141857,-0.6679459838388563,10
6.651108518086348,-0.6971154594521418,10
6.6611101850308385,-0.7400442230978712,10
6.671111851975329,-0.7570439988574375,10
6.68111351891982,-0.7861581232236299,10
6.6911151858643105,-0.7857695418884256,10
6.701116852808802,-0.7893729309270666,10
6.711118519753293,-0.7479744360146722,10
6.721120186697783,-0.7344514396885621,10
6.731121853642274,-0.6788251880782384,10
6.741123520586765,-0.6384759176198678,10
6.7511251875312555,-0.5708216260216868,10
6.761126854475746,-0.48590812298590386,10
6.771128521420237,-0.4261872535329544,10
6.7811301883647275,-0.34156523013760165,10
6.791131855309218,-0.2543173689164366,10
6.801133522253709,-0.15298165669506653,10
6.8111351891982,-0.05137845598583866,10
6.821136856142691,0.037479186882061366,10
6.831138523087182,0.13494045369118118,10
6.841140190031672,0.24485611457034345,10
6.851141856976163,0.3219371781963702,10
6.861143523920654,0.4305430595810309,10
6.871145190865144,0.4888638758499301,10
6.881146857809635,0.5459957872728368,10
6.891148524754126,0.6389332829564599,10
6.901150191698616,0.6961266803392127,10
6.911151858643107,0.7117428505254455,10
6.921153525587598,0.744116889510743,10
6.931155192532089,0.7784866470822924,10
6.94115685947658,0.7765565521190307,10
6.951158526421071,0.7610419010866241,10
6.961160193365561,0.7889801512661019,10
6.971161860310052,0.7529615717044357,10
6.981163527254543,0.6993656189494522,10
6.991165194199033,0.6689339083741113,10
7.001166861143524,0.6305328829047381,10
7.011168528088015,0.5658690824766042,10
7.021170195032505,0.5329909601380035,10
7.031171861976996,0.4556775945835929,10
7.041173528921487,0.40596844203675714,10
7.051175195865978,0.34761983949976194,10
7.061176862810469,0.3147147011827622,10
7.07117852975496,0.23969065244559098,10
7.08118019669945,0.21618834660719252,10
7.091181863643941,0.15846265322078062,10
7.101183530588432,0.13171567846318172,10
7.111185197532922,0.07451413103573643,10
7.121186864477413,0.0639519678401678,10
7.131188531421904,0.04894689988932916,10
7.141190198366394,0.02084282811364658,10
7.151191865310885,0.020823057873856965,10
7.161193532255377,0.03065671388779912,10
7.171195199199867,0.0002680844513092595,10
7.181196866144358,0.014151554158381955,10
7.191198533088849,0.012555797320239735,10
7.201200200033339,-0.010195788891103223,10
7.21120186697783,0.013862170087760799,10
7.221203533922321,0.011388468670112362,10
7.231205200866811,-0.025577403378433988,10
7.241206867811302,-0.011185958776364505,10
7.251208534755793,-0.031764788339527304,10
7.261210201700283,-0.04976027586867665,10
7.271211868644774,-0.07606760807364836,10
7.2812135355892655,-0.10233461889111871,10
7.291215202533756,-0.13286974841817298,10
7.301216869478247,-0.15485559527751241,10
7.311218536422738,-0.21405465539796276,10
7.321220203367228,-0.25318687042113963,10
7.331221870311719,-0.3211355274201457,10
7.34122353725621,-0.3628336287861738,10
7.3512252042007,-0.43381373186821715,10
7.361226871145191,-0.45952350000375675,10
7.371228538089682,-0.5410071910503919,10
7.381230205034172,-0.5622186852176997,10
7.391231871978664,-0.6434430299518221,10
7.4012335389231545,-0.683696852240375,10
7.411235205867645,-0.7016090405683764,10
7.421236872812136,-0.7291368395276544,10
7.4312385397566265,-0.7606080760642797,10
7.441240206701117,-0.7833684959449504,10
7.451241873645608,-0.7856985428077528,10
7.4612435405900985,-0.7760509047889761,10
7.471245207534589,-0.7492615147676578,10
7.48124687447908,-0.7290496392674612,10
7.4912485414235706,-0.683020610419188,10
7.501250208368061,-0.630098871821664,10
7.511251875312553,-0.5571234035173707,10
7.5212535422570435,-0.4676803523626942,10
7.531255209201534,-0.412624533729065,10
7.541256876146025,-0.3197810104841895,10
7.5512585430905155,-0.2326047559780964,10
7.561260210035006,-0.13597552544036065,10
7.571261876979497,-0.03124996162698497,10
7.5812635439239875,0.0603784221523558,10
7.591265210868478,0.17418014236230966,10
7.601266877812969,0.272012436901445,10
7.6112685447574595,0.35530759852645266,10
7.62127021170195,0.45034838821162276,10
7.631271878646442,0.5226979150251948,10
7.641273545590932,0.5826829303080906,10
7.651275212535423,0.6454773006429659,10
7.661276879479914,0.7013756811593471,10
7.671278546424404,0.73385112822412,10
7.681280213368895,0.7555636081541963,10
7.691281880313386,0.7770456215446564,10
7.7012835472578764,0.7853545800737242,10
7.711285214202367,0.7615442420280689,10
7.721286881146858,0.7487910337760246,10
7.7312885480913485,0.7342882461601364,10
7.74129021503584,0.6945147059496036,10
7.751291881980331,0.6521248771168092,10
7.761293548924821,0.6064140418372261,10
7.771295215869312,0.539862440886364,10
7.781296882813803,0.49713926181080675,10
7.791298549758293,0.4403991595236491,10
7.801300216702784,0.37834325033780913,10
7.811301883647275,0.3424087842144555,10
7.821303550591765,0.2855851777394829,10
7.831305217536256,0.21949193549441182,10
7.841306884480747,0.20150689184109513,10
7.851308551425237,0.15250751809429405,10
7.861310218369729,0.1156047107304612,10
7.87131188531422,0.07309216012998643,10
7.88131355225871,0.05841117319970971,10
7.891315219203201,0.0407168292068411,10
7.901316886147692,0.003569695124486811,10
7.911318553092182,0.013014793282212209,10
7.921320220036673,0.0023352857258907714,10
7.931321886981164,-0.025280737751867514,10
7.941323553925654,-0.0028058853439791673,10
7.951325220870145,0.015960669028524097,10
7.961326887814636,0.0005736235030784735,10
7.971328554759126,-0.010532059419992194,10
7.981330221703618,-0.013433000390370462,10
7.991331888648109,-0.009383495723121343,10
8.001333555592598,-0.010456496964147586,10
8.01133522253709,-0.05105529279399629,10
8.02133688948158,-0.04559774011968309,10
8.031338556426071,-0.06708902507059213,10
8.041340223370563,-0.08968599164374119,10
8.051341890315053,-0.13293524012734548,10
8.061343557259544,-0.18618766576864135,10
8.071345224204034,-0.24304845374320813,10
8.081346891148526,-0.26970935863785434,10
8.091348558093015,-0.3180498014961608,10
8.101350225037507,-0.39574345430451724,10
8.111351891981997,-0.44471723859698237,10
8.121353558926488,-0.5027599177559828,10
8.131355225870978,-0.5455903478338313,10
8.14135689281547,-0.589945341541671,10
8.151358559759961,-0.6612677270102351,10
8.161360226704451,-0.6942704517318077,10
8.171361893648942,-0.7248064390510357,10
8.181363560593432,-0.7403135807010849,10
8.191365227537924,-0.7629683967346629,10
8.201366894482414,-0.7666610024798286,10
8.211368561426905,-0.7809774627157337,10
8.221370228371395,-0.7546483965034737,10
8.231371895315887,-0.7500985879446616,10
8.241373562260376,-0.7164561666990541,10
8.251375229204868,-0.6465509695351186,10
8.261376896149358,-0.6164669065415698,10
8.27137856309385,-0.5370241733450944,10
8.28138023003834,-0.4502220442382686,10
8.29138189698283,-0.39871642136690294,10
8.301383563927322,-0.2755653257357114,10
8.311385230871812,-0.19660926522190844,10
8.321386897816303,-0.09851371013439172,10
8.331388564760793,0.009087216638424184,10
8.341390231705285,0.09663319481989376,10
8.351391898649775,0.19827234455988518,10
8.361393565594266,0.3018312404188369,10
8.371395232538756,0.37542590096880046,10
8.381396899483248,0.4699984803508501,10
8.391398566427739,0.5417382786982126,10
8.401400233372229,0.6095032270783038,10
8.41140190031672,0.6579739129395517,10
8.42140356726121,0.7089506356777759,10
8.431405234205702,0.7321477336110818,10
8.441406901150192,0.74632765945738,10
8.451408568094683,0.7717685718922164,10
8.461410235039173,0.7844641449127951,10
8.471411901983664,0.768822005135068,10
8.481413568928154,0.748334387897014,10
8.491415235872646,0.7258113552253969,10
8.501416902817137,0.6921833332145615,10
8.511418569761627,0.6444282772314658,10
8.521420236706119,0.6079497931117316,10
8.531421903650608,0.549575353140083,10
8.5414235705951,0.4748815612380662,10
8.55142523753959,0.44492384230737786,10
8.561426904484081,0.365473205923686,10
8.571428571428571,0.3258840215875595,10
8.581430238373063,0.2849822791468017,10
8.591431905317553,0.2349559141653153,10
8.601433572262044,0.18029240146255066,10
8.611435239206534,0.13506054325419778,10
8.621436906151025,0.09786959022288759,10
8.631438573095517,0.06534682681672191,10
8.641440240040007,0.05092313024473005,10
8.651441906984498,0.03111210362267841,10
8.661443573928988,0.0009923261180917117,10
8.67144524087348,0.005526960874579806,10
8.68144690781797,0.009122236159827123,10
8.691448574762461,-0.007420126220832849,10
8.70145024170695,-0.0061869397203245914,10
8.711451908651442,0.0073491877195589386,10
8.721453575595932,-0.019469363622369996,10
8.731455242540424,0.009440968849578457,10
8.741456909484915,-0.03074601460516139,10
8.751458576429405,-0.011223599534650837,10
8.761460243373897,-0.01334644926549041,10
8.771461910318386,-0.04215894835569765,10
8.781463577262878,-0.05417760031659829,10
8.791465244207368,-0.07665992997584894,10
8.80146691115186,-0.10245532177000352,10
8.811468578096349,-0.1507952757181796,10
8.82147024504084,-0.17217149179375027,10
8.83147191198533,-0.21882416406935143,10
8.841473578929822,-0.28066007775445384,10
8.851475245874314,-0.33433955455067943,10
8.861476912818803,-0.38332703771669274,10
8.871478579763295,-0.43266750248163266,10
8.881480246707785,-0.5181431297994427,10
8.891481913652276,-0.5618092924304859,10
8.901483580596766,-0.613328281008229,10
8.911485247541258,-0.6491193325610537,10
8.921486914485747,-0.6886841462993833,10
8.931488581430239,-0.7319725215445017,10
8.941490248374729,-0.7639966947533527,10
8.95149191531922,-0.778561629196859,10
8.96149358226371,-0.7713314167542147,10
8.971495249208202,-0.7738256848642787,10
8.981496916152693,-0.7706526948395945,10
8.991498583097183,-0.7270718513991684,10
9.001500250041675,-0.6895283555028954,10
9.011501916986164,-0.662833586976224,10
9.021503583930656,-0.5843315451876447,10
9.031505250875146,-0.5234703862633764,10
9.041506917819637,-0.4586307775429932,10
9.051508584764127,-0.3730557845092287,10
9.061510251708619,-0.2685104059295816,10
9.071511918653108,-0.1803078903525326,10
9.0815135855976,-0.06919528895733192,10
9.091515252542091,0.03319313548961268,10
9.101516919486581,0.133020940038347,10
9.111518586431073,0.22566447133122208,10
9.121520253375563,0.31574257501082587,10
9.131521920320054,0.4033275924110911,10
9.141523587264544,0.47592185208123583,10
9.151525254209036,0.538549157728077,10
9.161526921153525,0.6256012071169956,10
9.171528588098017,0.6672199871955394,10
9.181530255042507,0.7108026575527769,10
9.191531921986998,0.7531167575068973,10
9.20153358893149,0.7806910289297053,10
9.21153525587598,0.7669301790180112,10
9.221536922820471,0.778741037946147,10
9.231538589764961,0.7624560601150564,10
9.241540256709452,0.7323295150992042,10
9.251541923653942,0.7131948266753827,10
9.261543590598434,0.6865257155576512,10
9.271545257542924,0.6401889605900889,10
9.281546924487415,0.5852288440073219,10
9.291548591431905,0.5453141948300334,10
9.301550258376396,0.48078765477413793,10
9.311551925320888,0.38749622755004426,10
9.321553592265378,0.3616123203911216,10
9.33155525920987,0.3334365358438931,10
9.34155692615436,0.24152480224416054,10
9.35155859309885,0.21733484367851835,10
9.36156026004334,0.1825456311491798,10
9.371561926987832,0.1271888032344323,10
9.381563593932322,0.07564852037379617,10
9.391565260876813,0.05868540897899603,10
9.401566927821303,0.034244844013309565,10
9.411568594765795,0.023915279041228085,10
9.421570261710285,0.00729503545614082,10
9.431571928654776,0.016430399815680945,10
9.441573595599268,-0.007265531741785854,10
9.451575262543757,0.011863740301932525,10
9.461576929488249,-0.007839845983379477,10
9.471578596432739,-0.004771671972813282,10
9.48158026337723,-0.009670959737985914,10
9.49158193032172,-0.004409285802947635,10
9.501583597266212,-0.013596584875337114,10
9.511585264210701,-0.017419674124407387,10
9.521586931155193,-0.03215222367397033,10
9.531588598099683,-0.0319837850845504,10
9.541590265044174,-0.06816351176112206,10
9.551591931988666,-0.08310257985254343,10
9.561593598933156,-0.11836937181847597,10
9.571595265877647,-0.15840390470609161,10
9.581596932822137,-0.19459992886847063,10
9.591598599766629,-0.26620784886202875,10
9.601600266711118,-0.2945213737407125,10
9.61160193365561,-0.3660329056582624,10
9.6216036006001,-0.4131879914563074,10
9.631605267544591,-0.4701469216488721,10
9.641606934489081,-0.5031152511227749,10
9.651608601433573,-0.5592222474004721,10
9.661610268378064,-0.6224728035722593,10
9.671611935322554,-0.6672571758586274,10
9.681613602267046,-0.7107103727298382,10
9.691615269211535,-0.7329946168106991,10
9.701616936156027,-0.7469888628900836,10
9.711618603100517,-0.7786071734192749,10
9.721620270045008,-0.7772176832693252,10
9.731621936989498,-0.7646269901133539,10
9.74162360393399,-0.7634848777671043,10
9.75162527087848,-0.7285042367749825,10
9.761626937822971,-0.6886081295927867,10
9.77162860476746,-0.625754493734354,10
9.781630271711952,-0.5608639032426668,10
9.791631938656444,-0.4874472460727382,10
9.801633605600934,-0.4097845430439208,10
9.811635272545425,-0.33872917038704153,10
9.821636939489915,-0.2482550081217362,10
9.831638606434407,-0.13463195045169307,10
9.841640273378896,-0.0554162749252793,10
9.851641940323388,0.06439152017988087,10
9.861643607267878,0.16527329241419175,10
9.87164527421237,0.26241642214686633,10
9.881646941156859,0.3400943933917162,10
9.89164860810135,0.4163572294041325,10
9.901650275045842,0.49980888772776666,10
9.911651941990332,0.5753680437023327,10
9.921653608934824,0.626844153979206,10
9.931655275879313,0.6714085163476237,10
9.941656942823805,0.709447182872093,10
9.951658609768295,0.7523076222545988,10
9.961660276712786,0.785392207260177,10
9.971661943657276,0.7848028842441613,10
9.981663610601768,0.7664812171508244,10
9.991665277546257,0.7572538306385632,10
10.001666944490749,0.7292941920743801,10
10.01166861143524,0.7089799930812275,10
10.02167027837973,0.6562092873720174,10
10.031671945324222,0.6257956612790861,10
10.041673612268712,0.5571635236183453,10
10.051675279213203,0.504397876158406,10
10.061676946157693,0.4611850986535126,10
10.071678613102184,0.393265147099193,10
10.081680280046674,0.35262631823270113,10
10.091681946991166,0.2889770048744681,10
10.101683613935656,0.25617405613417604,10
10.111685280880147,0.18023714281460684,10
10.121686947824637,0.16197980057325626,10
10.131688614769129,0.12699406864890492,10
10.14169028171362,0.09478094709448862,10
10.15169194865811,0.04221208033409361,10
10.161693615602601,0.044312992759142286,10
10.171695282547091,0.019989160006572134,10
10.181696949491583,0.017745844243304876,10
10.191698616436073,-0.00891525871959912,10
10.201700283380564,0.006902563191421554,10
10.211701950325054,0.019734676423030614,10
10.221703617269545,0.017259702513501667,10
10.231705284214035,0.004360152100323973,10
10.241706951158527,-0.008841379224422038,10
10.251708618103018,-0.010774844548441286,10
10.261710285047508,-0.0023640365930282055,10
10.271711951992,-0.03477893429911444,10
10.28171361893649,-0.033158012641048076,10
10.291715285880981,-0.049233184971501635,10
10.30171695282547,-0.055152255123527526,10
10.311718619769962,-0.08958796224602537,10
10.321720286714452,-0.1498391811710782,10
10.331721953658944,-0.16995358387871964,10
10.341723620603434,-0.22782494523433272,10
10.351725287547925,-0.26257828251056586,10
10.361726954492417,-0.32422147675836827,10
10.371728621436906,-0.38423880377784003,10
10.381730288381398,-0.4263585746694561,10
10.391731955325888,-0.4706535645766218,10
10.40173362227038,-0.535214355164924,10
10.41173528921487,-0.5758036752046838,10
10.42173695615936,-0.6136831845853936,10
10.43173862310385,-0.6724987294484445,10
10.441740290048342,-0.7229645500731713,10
10.451741956992832,-0.7481496199537379,10
10.461743623937323,-0.7599783892556672,10
10.471745290881813,-0.7794839180199399,10
10.481746957826305,-0.7743216132535595,10
10.491748624770796,-0.7702717725405641,10
10.501750291715286,-0.7559594145936867,10
10.511751958659778,-0.7279564049294328,10
10.521753625604267,-0.6689276712455708,10
10.531755292548759,-0.607487293197401,10
10.541756959493249,-0.5502836633624063,10
10.55175862643774,-0.4946965833028488,10
10.56176029338223,-0.39027053546583973,10
10.571761960326722,-0.3112798200547369,10
10.581763627271211,-0.2082491584413166,10
10.591765294215703,-0.11666031071737641,10
10.601766961160195,-0.026199244216457987,10
10.611768628104684,0.06807491705948829,10
10.621770295049176,0.1575411306578906,10
10.631771961993666,0.2514816102911617,10
10.641773628938157,0.3699638747764351,10
10.651775295882647,0.4501898718747407,10
10.661776962827139,0.5323485449344042,10
10.671778629771628,0.5919105215295631,10
10.68178029671612,0.644740537170982,10
10.69178196366061,0.7090556136647221,10
10.701783630605101,0.74147550298226,10
10.711785297549593,0.7394663463190226,10
10.721786964494083,0.7829937857736982,10
10.731788631438574,0.7728545238630048,10
10.741790298383064,0.7705236832991823,10
10.751791965327556,0.7461932696123456,10
10.761793632272045,0.7145748706810022,10
10.771795299216537,0.6746932729541164,10
10.781796966161027,0.6482560177048707,10
10.791798633105518,0.5996745098394811,10
10.801800300050008,0.5718573222524843,10
10.8118019669945,0.4975071542819172,10
10.82180363393899,0.4409909878586625,10
10.831805300883481,0.392737113074342,10
10.841806967827972,0.3259737327381345,10
10.851808634772462,0.2835762498306068,10
10.861810301716954,0.2245374431862661,10
10.871811968661444,0.17127538682223986,10
10.881813635605935,0.14162715077185264,10
10.891815302550425,0.11930844061156105,10
10.901816969494917,0.08398484107709317,10
10.911818636439406,0.0372918597107607,10
10.921820303383898,0.035554593595610404,10
10.931821970328388,0.02020904153897177,10
10.94182363727288,0.01911243353843216,10
10.95182530421737,0.0035984071277518582,10
10.96182697116186,0.00964173143538489,10
10.971828638106352,-0.007689347533520935,10
10.981830305050842,0.0030692559136237204,10
10.991831971995333,-0.002021635281101511,10
11.001833638939823,0.0019624741694749927,10
11.011835305884315,0.002616849717108379,10
11.021836972828805,-0.012958764904185445,10
11.031838639773296,-0.03730910287356723,10
11.041840306717786,-0.0211269551844097,10
11.051841973662277,-0.051253810357744886,10
11.061843640606769,-0.07747079834217743,10
11.071845307551259,-0.11341983841319091,10
11.08184697449575,-0.14600159111219585,10
11.09184864144024,-0.18349855498949902,10
11.101850308384732,-0.2313437207512166,10
11.111851975329222,-0.28349716993687507,10
11.121853642273713,-0.3416856116632366,10
11.131855309218203,-0.3788804026860786,10
11.141856976162694,-0.436626468039716,10
11.151858643107184,-0.47691125048472655,10
11.161860310051676,-0.5480595929228013,10
11.171861976996166,-0.606986945986362,10
11.181863643940657,-0.646223637695358,10
11.191865310885149,-0.6869892759486466,10
11.201866977829638,-0.7168230711864573,10
11.21186864477413,-0.7553552714384978,10
11.22187031171862,-0.7468539505754536,10
11.231871978663111,-0.7886407164810888,10
11.241873645607601,-0.7726031621623668,10
11.251875312552093,-0.7706792717420131,10
11.261876979496583,-0.7378581904949261,10
11.271878646441074,-0.6852544248612754,10
11.281880313385564,-0.6621304098066463,10
11.291881980330055,-0.602262414295848,10
11.301883647274547,-0.537349384716622,10
11.311885314219037,-0.46337618781928935,10
11.321886981163528,-0.36951140347741623,10
11.331888648108018,-0.28895093574125275,10
11.34189031505251,-0.19136205418772467,10
11.351891981997,-0.09048005940113212,10
11.361893648941491,0.008817435310137971,10
11.37189531588598,0.11154097652668762,10
11.381896982830472,0.20895426172382697,10
11.391898649774962,0.3158233090259355,10
11.401900316719454,0.39738875703044607,10
11.411901983663945,0.46716268530460375,10
11.421903650608435,0.5580153113806793,10
11.431905317552927,0.620290028899807,10
11.441906984497416,0.6692587308459604,10
11.451908651441908,0.708165621478808,10
11.461910318386398,0.7195778901133261,10
11.47191198533089,0.7653639372421556,10
11.481913652275379,0.769252830021009,10
11.49191531921987,0.7867285024367782,10
11.50191698616436,0.7713500177163324,10
11.511918653108852,0.743677229547762,10
11.521920320053344,0.7249595189187532,10
11.531921986997833,0.6937849263779428,10
11.541923653942325,0.6254069557633464,10
11.551925320886815,0.6011624539593968,10
11.561926987831306,0.5194749071905361,10
11.571928654775796,0.48029840336207846,10
11.581930321720288,0.4020404697197294,10
11.591931988664777,0.371806580022688,10
11.601933655609269,0.3312511105404161,10
11.611935322553759,0.2756691677957105,10
11.62193698949825,0.2253805695807544,10
11.63193865644274,0.18296970073531796,10
11.641940323387232,0.1472171965475992,10
11.651941990331723,0.1142053394202956,10
11.661943657276213,0.059930667206747244,10
11.671945324220705,0.034227748210032945,10
11.681946991165194,0.024399366136140226,10
11.691948658109686,0.025284325858490966,10
11.701950325054176,0.024153755785133124,10
11.711951991998667,0.003224540459864444,10
11.721953658943157,0.014420056351077952,10
11.731955325887649,8.392585140619834e-05,10
11.741956992832138,-0.0011288211451645654,10
11.75195865977663,-0.009876863486973447,10
11.761960326721121,0.005267069555442267,10
11.771961993665611,0.00659510414573739,10
11.781963660610103,-0.02662882036477606,10
11.791965327554593,-0.05289991108151275,10
11.801966994499084,-0.028611898234371935,10
11.811968661443574,-0.05928299388063563,10
11.821970328388065,-0.08923462659481571,10
11.831971995332555,-0.12179638584155114,10
11.841973662277047,-0.15960498770928164,10
11.851975329221537,-0.19933871567868675,10
11.861976996166028,-0.2436405679887272,10
11.87197866311052,-0.283873917358107,10
11.88198033005501,-0.3529827163018686,10
11.891981996999501,-0.38868834101692856,10
11.90198366394399,-0.46980017388362805,10
11.911985330888482,-0.516240100153345,10
11.921986997832972,-0.5766196784614074,10
11.931988664777464,-0.6234809170766162,10
11.941990331721954,-0.6725446675162924,10
11.951991998666445,-0.703261787653862,10
11.961993665610935,-0.7163472007262925,10
11.971995332555426,-0.7374907699169095,10
11.981996999499916,-0.7642489417403424,10
11.991998666444408,-0.7726326028858994,10
12.0020003333889,-0.7756479036212527,10
12.01200200033339,-0.7620774119409034,10
12.02200366727788,-0.7284868115105527,10
12.03200533422237,-0.6978344746944559,10
12.042007001166862,-0.6534210811777523,10
12.052008668111352,-0.5785360073247829,10
12.062010335055843,-0.514536061661981,10
12.072012002000333,-0.44765028231825693,10
12.082013668944825,-0.3535508138773621,10
12.092015335889315,-0.2678790579148277,10
12.102017002833806,-0.15634032303414505,10
12.112018669778298,-0.0729370190814877,10
12.122020336722787,0.023047057341512085,10
12.132022003667279,0.13522740983658957,10
12.142023670611769,0.2110975877418236,10
12.15202533755626,0.3203704410938616,10
12.16202700450075,0.4083278684663842,10
12.172028671445242,0.49795131641418144,10
12.182030338389731,0.5718552886074304,10
12.192032005334223,0.6136347342070154,10
12.202033672278713,0.6795775986354547,10
12.212035339223204,0.7317060982086976,10
12.222037006167696,0.7330572801678357,10
12.232038673112186,0.7661063688995483,10
12.242040340056677,0.7674327600198051,10
12.252042007001167,0.775351550338223,10
12.262043673945659,0.7600400616564567,10
12.272045340890148,0.7390145602284008,10
12.28204700783464,0.712403447708951,10
12.29204867477913,0.6798636268827992,10
12.302050341723621,0.623093559966977,10
12.312052008668111,0.5809330724179006,10
12.322053675612603,0.5292759125860861,10
12.332055342557092,0.4660567761246208,10
12.342057009501584,0.43813762903427356,10
12.352058676446076,0.35348175104288304,10
12.362060343390565,0.3165609145132378,10
12.372062010335057,0.2470271738546016,10
12.382063677279547,0.19925632463856766,10
12.392065344224038,0.14777520050041265,10
12.402067011168528,0.13132217189203682,10
12.41206867811302,0.08724683365566169,10
12.42207034505751,0.05223035476093737,10
12.432072012002001,0.0016961035427013951,10
12.44207367894649,0.04837583030846933,10
12.452075345890982,0.015501629758960163,10
12.462077012835474,0.018765053021790726,10
12.472078679779964,0.005093588768297566,10
12.482080346724455,0.00764663549925957,10
12.492082013668945,-0.001979595303116908,10
12.502083680613437,0.00192290471223621,10
12.512085347557926,-0.0006899958779948303,10
12.522087014502418,-0.011871186704135988,10
12.532088681446908,-0.014556802269034875,10
12.5420903483914,-0.026130510629863185,10
12.552092015335889,-0.03328757991275068,10
12.56209368228038,-0.038335535842999646,10
12.572095349224872,-0.06986900538482313,10
12.582097016169362,-0.09214091818489596,10
12.592098683113853,-0.12152624098410002,10
12.602100350058343,-0.17168269302063854,10
12.612102017002835,-0.20063662064607196,10
12.622103683947325,-0.25671171390225267,10
12.632105350891816,-0.29068608934579265,10
12.642107017836306,-0.35615402903927607,10
12.652108684780798,-0.40775655548706535,10
12.662110351725287,-0.45794021362793336,10
12.672112018669779,-0.5195734114269015,10
12.682113685614269,-0.5532885987016318,10
12.69211535255876,-0.6306573270757505,10
12.702117019503252,-0.677912029117057,10
12.712118686447742,-0.7085211899216013,10
12.722120353392233,-0.7612308832582508,10
12.732122020336723,-0.7636775642814307,10
12.742123687281214,-0.7947576612054621,10
12.752125354225704,-0.7686461866829741,10
12.762127021170196,-0.7691735527556335,10
12.772128688114686,-0.7528491746071441,10
12.782130355059177,-0.7177406734719759,10
12.792132022003667,-0.6809828208929283,10
12.802133688948159,-0.6565310547492482,10
12.81213535589265,-0.5494479940176954,10
12.82213702283714,-0.49299073283410527,10
12.832138689781631,-0.42867212408460625,10
12.842140356726121,-0.32655128157378066,10
12.852142023670613,-0.23101269539835773,10
12.862143690615103,-0.15217883694318837,10
12.872145357559594,-0.04834030358763797,10
12.882147024504084,0.06711264722559199,10
12.892148691448575,0.1630137137744057,10
12.902150358393065,0.2513465790811029,10
12.912152025337557,0.3366427747952897,10
12.922153692282048,0.4258079773523001,10
12.932155359226538,0.5083378184815331,10
12.94215702617103,0.5727625247395658,10
12.95215869311552,0.6292756488691698,10
12.962160360060011,0.6920316505902979,10
12.9721620270045,0.7048003979527306,10
12.982163693948992,0.7560958955451043,10
12.992165360893482,0.7785170587459699,10
13.002167027837974,0.7846955775967567,10
13.012168694782464,0.7618107124363687,10
13.022170361726955,0.7578130265227493,10
13.032172028671445,0.7316657604277956,10
13.042173695615936,0.7018971404230403,10
13.052175362560428,0.6474984541704847,10
13.062177029504918,0.6054969971613579,10
13.07217869644941,0.5673049007021558,10
13.0821803633939,0.5019828476753808,10
13.09218203033839,0.4601408788125634,10
13.10218369728288,0.4026071894769896,10
13.112185364227372,0.35586383904310304,10
13.122187031171862,0.29353731380303183,10
13.132188698116353,0.23708028372137124,10
13.142190365060843,0.19246122697839388,10
13.152192032005335,0.14398885288658003,10
13.162193698949826,0.13191728613298354,10
13.172195365894316,0.0884198365433985,10
13.182197032838808,0.06029012504909613,10
13.192198699783297,0.011052757415798451,10
13.202200366727789,0.019697926179646972,10
13.212202033672279,0.0008661085568332332,10
13.22220370061677,0.004709145454049323,10
13.23220536756126,-0.0010232326378345944,10
13.242207034505752,0.003237795752516112,10
13.252208701450241,-0.012181216671136122,10
13.262210368394733,-0.010789404225283065,10
13.272212035339225,-0.013796063523306852,10
13.282213702283714,-0.01236664911958739,10
13.292215369228206,-0.006138225400387543,10
13.302217036172696,-0.025418123471200024,10
13.312218703117187,-0.033695374204341495,10
13.322220370061677,-0.048729768006585135,10
13.332222037006169,-0.06431657672084476,10
13.342223703950658,-0.09585519824670893,10
13.35222537089515,-0.11631627719262207,10
13.36222703783964,-0.17193088701322276,10
13.372228704784131,-0.22013900976355755,10
13.382230371728621,-0.28044709143465024,10
13.392232038673113,-0.29748127545158165,10
13.402233705617604,-0.3700114574493403,10
13.412235372562094,-0.43638192663988046,10
13.422237039506586,-0.4856573810483619,10
13.432238706451075,-0.5331497949817999,10
13.442240373395567,-0.5809227150985824,10
13.452242040340057,-0.6471360000174206,10
13.462243707284548,-0.6878451423795731,10
13.472245374229038,-0.6949784331085157,10
13.48224704117353,-0.7486299123774205,10
13.49224870811802,-0.7657065403147907,10
13.502250375062511,-0.7844636722381212,10
13.512252042007002,-0.778003801479398,10
13.522253708951492,-0.7651148959125064,10
13.532255375895984,-0.7395938308039778,10
13.542257042840474,-0.7166586305640495,10
13.552258709784965,-0.6760696021543262,10
13.562260376729455,-0.6068822018796021,10
13.572262043673947,-0.5516808794844151,10
13.582263710618436,-0.48498470817940736,10
13.592265377562928,-0.3915044635448489,10
13.602267044507418,-0.2926925132553386,10
13.61226871145191,-0.2284283362933079,10
13.6222703783964,-0.09818834781799095,10
13.63227204534089,-0.008705483924151436,10
13.642273712285382,0.07615157885537208,10
13.652275379229872,0.1899828401723262,10
13.662277046174363,0.2936949523746883,10
13.672278713118853,0.35462169760395384,10
13.682280380063345,0.46371774233307095,10
13.692282047007835,0.5430358719047756,10
13.702283713952326,0.6000066234832493,10
13.712285380896816,0.6527934994282588,10
13.722287047841307,0.6930955675483688,10
13.732288714785797,0.7551762961616714,10
13.742290381730289,0.7768665468583904,10
13.75229204867478,0.7671559554144745,10
13.76229371561927,0.7835875427086835,10
13.772295382563762,0.7754829619851041,10
13.782297049508252,0.7575099693030999,10
13.792298716452743,0.7207286542874763,10
13.802300383397233,0.695248107250419,10
13.812302050341724,0.6418758430665604,10
13.822303717286214,0.6099814497007757,10
13.832305384230706,0.542446550019912,10
13.842307051175196,0.5041400655857068,10
13.852308718119687,0.4446052268476221,10
13.862310385064179,0.3828867541157223,10
13.872312052008668,0.3269239324095165,10
13.88231371895316,0.281304312353231,10
13.89231538589765,0.21407061599139865,10
13.902317052842141,0.19122072052694994,10
13.912318719786631,0.14517328583084907,10
13.922320386731123,0.10004557073492173,10
13.932322053675612,0.09034107148888329,10
13.942323720620104,0.056664652907713706,10
13.952325387564594,0.03814400635402744,10
13.962327054509085,0.007299834148169905,10
13.972328721453577,0.014315941249687629,10
13.982330388398067,0.0063952179828566606,10
13.992332055342558,0.0072957589051167535,10
14.002333722287048,0.01172177429725203,10
14.01233538923154,-0.003161109454222753,10
14.02233705617603,-0.012774366023336538,10
14.032338723120521,-0.0038849613911855273,10
14.04234039006501,-0.0033152479894903437,10
14.052342057009502,-0.004348740091115534,10
14.062343723953992,-0.006460110731693322,10
14.072345390898484,-0.029344222745896865,10
14.082347057842973,-0.04862545393521028,10
14.092348724787465,-0.0782337703019403,10
14.102350391731957,-0.1159454384486696,10
14.112352058676446,-0.14183274171565632,10
14.122353725620938,-0.18638905615318424,10
14.132355392565428,-0.23768071913264416,10
14.14235705950992,-0.2760388729944678,10
14.152358726454409,-0.3371831336546783,10
14.1623603933989,-0.3963356282676926,10
14.17236206034339,-0.45692668336261855,10
14.182363727287882,-0.5002811018657805,10
14.192365394232372,-0.5613143884277602,10
14.202367061176863,-0.5939666880187644,10
14.212368728121355,-0.6402870603591923,10
14.222370395065845,-0.6823090410971686,10
14.232372062010336,-0.7158019269098271,10
14.242373728954826,-0.7515841692292493,10
14.252375395899318,-0.7775486521990276,10
14.262377062843807,-0.787106032842385,10
14.272378729788299,-0.7783864631766311,10
14.282380396732789,-0.7574459396964306,10
14.29238206367728,-0.723051523438675,10
14.30238373062177,-0.7135795667147495,10
14.312385397566262,-0.6533802904342663,10
14.322387064510753,-0.581445662923634,10
14.332388731455243,-0.521458903796953,10
14.342390398399735,-0.435073597873146,10
14.352392065344224,-0.3711040782831296,10
14.362393732288716,-0.2761524808717544,10
14.372395399233206,-0.16727513965830376,10
14.382397066177697,-0.07760249843841749,10
14.392398733122187,0.003773070094655181,10
14.402400400066679,0.11408493090551058,10
14.412402067011168,0.2157600952156167,10
14.42240373395566,0.322966138879299,10
14.432405400900151,0.3913393529142903,10
14.442407067844641,0.4905838402108763,10
14.452408734789133,0.5652506186599293,10
14.462410401733623,0.631440766254836,10
14.472412068678114,0.6783837780717451,10
14.482413735622604,0.7226750135992109,10
14.492415402567095,0.7674035141246324,10
14.502417069511585,0.7645580201189962,10
14.512418736456077,0.7495530556726351,10
14.522420403400567,0.7759849907395918,10
14.532422070345058,0.7598745271143842,10
14.542423737289548,0.741515460940857,10
14.55242540423404,0.7036358592278718,10
14.562427071178531,0.6797258437318052,10
14.57242873812302,0.6507240054177864,10
14.582430405067512,0.6005152098641162,10
14.592432072012002,0.5274315790796207,10
14.602433738956494,0.4753539109505971,10
14.612435405900984,0.44359700442881306,10
14.622437072845475,0.3710040272968687,10
14.632438739789965,0.31334960059268957,10
14.642440406734456,0.2688105208628504,10
14.652442073678946,0.2130962942208744,10
14.662443740623438,0.1830367004989068,10
14.67244540756793,0.14112702466065982,10
14.68244707451242,0.09153347576329285,10
14.69244874145691,0.07938101992064313,10
14.7024504084014,0.058191851365963186,10
14.712452075345892,0.016638550593187147,10
14.722453742290382,0.015717721434664194,10
14.732455409234873,-0.004013530558462396,10
14.742457076179363,0.0013278321744827613,10
14.752458743123855,-0.009754774981836132,10
14.762460410068345,-0.00025766704105949787,10
14.772462077012836,0.0045375510016206575,10
14.782463743957328,0.008828397159328276,10
14.792465410901817,-0.00957011873031494,10
14.802467077846309,0.001815255722515988,10
14.812468744790799,0.0037440608903528197,10
14.82247041173529,-0.04380642288736376,10
14.83247207867978,-0.03833470255260941,10
14.842473745624272,-0.04598232675851624,10
14.852475412568761,-0.086467235636288,10
14.862477079513253,-0.1199316624789962,10
14.872478746457743,-0.15866560058471724,10
14.882480413402234,-0.19778986238002869,10
14.892482080346724,-0.2323953781751253,10
14.902483747291216,-0.28563350148237515,10
14.912485414235707,-0.34268593018560806,10
14.922487081180197,-0.39746089564174836,10
14.932488748124689,-0.45842307699040463,10
14.942490415069178,-0.5081414208289574,10
14.95249208201367,-0.544518526202174,10
14.96249374895816,-0.6016818420179252,10
14.972495415902651,-0.6823423694040772,10
14.982497082847141,-0.7037488083622444,10
14.992498749791633,-0.7401130000511605,10
15.002500416736122,-0.7628210052790535,10
15.012502083680614,-0.7633679650999508,10
15.022503750625106,-0.7881553455902549,10
15.032505417569595,-0.7612749018774755,10
15.042507084514087,-0.7701960326666062,10
15.052508751458577,-0.7336510894657731,10
15.062510418403068,-0.696840253838707,10
15.072512085347558,-0.6268029434278517,10
15.08251375229205,-0.5675642790633646,10
15.09251541923654,-0.5150510198924815,10
15.102517086181031,-0.41689515992398757,10
15.11251875312552,-0.3418542492699245,10
15.122520420070012,-0.24983844979861183,10
15.132522087014504,-0.15239021040465325,10
15.142523753958994,-0.06425281663070376,10
15.152525420903485,0.05697351119704586,10
15.162527087847975,0.1515212562419877,10
15.172528754792467,0.2565676268102377,10
15.182530421736956,0.31369901889857,10
15.192532088681448,0.4291065800087748,10
15.202533755625938,0.47997965724555197,10
15.21253542257043,0.5583370947501863,10
15.222537089514919,0.6245337572129943,10
15.23253875645941,0.687370970347993,10
15.2425404234039,0.7268188760237774,10
15.252542090348392,0.7654851111749661,10
15.262543757292883,0.765335592219903,10
15.272545424237373,0.7812326257363762,10
15.282547091181865,0.7693733411372241,10
15.292548758126355,0.7665447175302346,10
15.302550425070846,0.7252605826557634,10
15.312552092015336,0.7199540204241499,10
15.322553758959828,0.6821330355398141,10
15.332555425904317,0.622277777286014,10
15.342557092848809,0.5765131360122417,10
15.352558759793299,0.5174013258991561,10
15.36256042673779,0.46561150291468884,10
15.372562093682282,0.4034732008692832,10
15.382563760626772,0.36268164899274863,10
15.392565427571263,0.2892272865778728,10
15.402567094515753,0.24270544487314338,10
15.412568761460244,0.20768497949665893,10
15.422570428404734,0.15426526445792013,10
15.432572095349226,0.13522719662062355,10
15.442573762293716,0.08561534501379217,10
15.452575429238207,0.06851689793422985,10
15.462577096182697,0.05486595656113732,10
15.472578763127188,0.0283153883890498,10
15.48258043007168,0.019917392678529967,10
15.49258209701617,0.012891845349096525,10
15.502583763960661,0.0009793793732083907,10
15.512585430905151,0.005384117747272016,10
15.522587097849643,-0.003360927891773912,10
15.532588764794133,0.00722329462473174,10
15.542590431738624,0.0024959655964057574,10
15.552592098683114,-0.0041295869829693025,10
15.562593765627605,-0.008788509486374583,10
15.572595432572095,-0.027018937899207895,10
15.582597099516587,-0.03392302579811886,10
15.592598766461077,-0.06536375434815445,10
15.602600433405568,-0.061979110726662984,10
15.61260210035006,-0.09450316429699991,10
15.62260376729455,-0.13967224333297132,10
15.632605434239041,-0.16516714344401776,10
15.64260710118353,-0.21776282036991487,10
15.652608768128022,-0.24868534797976652,10
15.662610435072512,-0.325152116997458,10
15.672612102017004,-0.36192738404658714,10
15.682613768961494,-0.4286888268120699,10
15.692615435905985,-0.4880948204849559,10
15.702617102850475,-0.523482728049886,10
15.712618769794966,-0.574059304552697,10
15.722620436739458,-0.6139000539416712,10
15.732622103683948,-0.6692236588144913,10
15.74262377062844,-0.6987306091774078,10
15.752625437572929,-0.7403364675303915,10
15.76262710451742,-0.7738162441114819,10
15.77262877146191,-0.7871956075126019,10
15.782630438406402,-0.7733257258640358,10
15.792632105350892,-0.7623747020616028,10
15.802633772295383,-0.7446567043167295,10
15.812635439239873,-0.7164187617850716,10
15.822637106184365,-0.6870500607032575,10
15.832638773128856,-0.6458109151405613,10
15.842640440073346,-0.5472265982865095,10
15.852642107017838,-0.47288475563708854,10
15.862643773962327,-0.4039606699075894,10
15.872645440906819,-0.3213864426539143,10
15.882647107851309,-0.22272432454244295,10
15.8926487747958,-0.12838914684567276,10
15.90265044174029,-0.04521948587110329,10
15.912652108684782,0.08311702800126491,10
15.922653775629271,0.15934936445576495,10
15.932655442573763,0.26988004837460966,10
15.942657109518253,0.36381706944319375,10
15.952658776462744,0.4404715895114628,10
15.962660443407236,0.5144542513333151,10
15.972662110351726,0.5991612155189723,10
15.982663777296217,0.6336719944334963,10
15.992665444240707,0.6967048621456828,10
16.002667111185197,0.72375630682886,10
16.01266877812969,0.7625994266311322,10
16.02267044507418,0.7871282415813139,10
16.03267211201867,0.7815461725146472,10
16.04267377896316,0.7629319119614664,10
16.052675445907653,0.7505333213768148,10
16.062677112852143,0.719041279737888,10
16.072678779796632,0.7018935210297504,10
16.082680446741126,0.6547216506990846,10
16.092682113685616,0.6093469074102589,10
16.102683780630105,0.5617222583422566,10
16.112685447574595,0.5258439076745559,10
16.12268711451909,0.44856353658426074,10
16.132688781463578,0.40159093646137467,10
16.142690448408068,0.35407246799901376,10
16.152692115352558,0.3070744563120862,10
16.16269378229705,0.25344775252059154,10
16.17269544924154,0.1796993263904524,10
16.18269711618603,0.14556706647260867,10
16.192698783130524,0.12162710649025979,10
16.202700450075014,0.08324890759097903,10
16.212702117019504,0.05205728315633548,10
16.222703783963993,0.044135142479900705,10
16.232705450908487,0.02588984143498533,10
16.242707117852976,-0.00497733143058544,10
16.252708784797466,-0.007354596083792199,10
16.262710451741956,-0.008786719972428914,10
16.27271211868645,0.0018674700471439896,10
16.28271378563094,-0.015246810474440618,10
16.29271545257543,0.005453332920864757,10
16.302717119519922,0.001954337144477005,10
16.312718786464412,-0.017101143898100097,10
16.322720453408902,-0.01273030998083505,10
16.33272212035339,-0.017927920456533044,10
16.342723787297885,-0.025182621228763843,10
16.352725454242375,-0.06096962871347119,10
16.362727121186865,-0.06707885881662712,10
16.372728788131354,-0.11301291647319633,10
16.382730455075848,-0.1302165652486339,10
16.392732122020337,-0.18427614211758842,10
16.402733788964827,-0.21803384349091348,10
16.41273545590932,-0.27858496607291827,10
16.42273712285381,-0.327510210608909,10
16.4327387897983,-0.3821520756621635,10
16.44274045674279,-0.43745005827812494,10
16.452742123687283,-0.4993091934584426,10
16.462743790631773,-0.5537630416896305,10
16.472745457576263,-0.59953928401309,10
16.482747124520753,-0.6227580339749224,10
16.492748791465246,-0.6743024061498684,10
16.502750458409736,-0.7277751614045797,10
16.512752125354226,-0.7582337605705628,10
16.522753792298715,-0.778699470326953,10
16.53275545924321,-0.8019559406981257,10
16.5427571261877,-0.7866162270313479,10
16.55275879313219,-0.7669397344234437,10
16.56276046007668,-0.7323798219744135,10
16.57276212702117,-0.7127300326683468,10
16.58276379396566,-0.6717375200138244,10
16.59276546091015,-0.6037558483384629,10
16.602767127854644,-0.5580359864263759,10
16.612768794799134,-0.46329133462501493,10
16.622770461743624,-0.3887529404313064,10
16.632772128688114,-0.29496778047181205,10
16.642773795632607,-0.20139230530187396,10
16.652775462577097,-0.09603488170913327,10
16.662777129521587,-0.006426468443743271,10
16.67277879646608,0.10666318657907968,10
16.68278046341057,0.1866664332688386,10
16.69278213035506,0.2883448275961406,10
16.70278379729955,0.3831404655670488,10
16.712785464244043,0.457025175269099,10
16.722787131188532,0.5321828602783697,10
16.732788798133022,0.6234328608641692,10
16.742790465077512,0.6730403809559562,10
16.752792132022005,0.6956067474383295,10
16.762793798966495,0.7217702316828953,10
16.772795465910985,0.763528325149781,10
16.782797132855478,0.7701450395342805,10
16.792798799799968,0.7673522846891809,10
16.802800466744458,0.7562963565741829,10
16.812802133688947,0.7633749060522378,10
16.82280380063344,0.719631464393088,10
16.83280546757793,0.6787599757532552,10
16.84280713452242,0.6579613905566813,10
16.85280880146691,0.5853650138625328,10
16.862810468411404,0.5420449911324234,10
16.872812135355893,0.47051497893353417,10
16.882813802300383,0.4279814864831727,10
16.892815469244876,0.3895196625441797,10
16.902817136189366,0.31729611246413847,10
16.912818803133856,0.26018584280009927,10
16.922820470078346,0.2225628227748889,10
16.93282213702284,0.1806298033731185,10
16.94282380396733,0.15958402565532978,10
16.95282547091182,0.09447399438867435,10
16.96282713785631,0.0761302482990445,10
16.972828804800802,0.05141913963965872,10
16.98283047174529,0.013725623697609116,10
16.99283213868978,0.01555545712796284,10
17.002833805634275,0.008645321150289393,10
17.012835472578764,0.015710527656313575,10
17.022837139523254,-0.019454730039114014,10
17.032838806467744,0.005651343999051399,10
17.042840473412237,-0.0015215825946977607,10
17.052842140356727,0.00021241789193702783,10
17.062843807301217,0.018629863227486013,10
17.072845474245707,0.0001213245622328548,10
17.0828471411902,-0.021996607289592185,10
17.09284880813469,-0.017739871825717103,10
17.10285047507918,-0.019700488811960102,10
17.112852142023673,-0.03787151095903149,10
17.122853808968163,-0.0831940517207201,10
17.132855475912653,-0.11210512506210235,10
17.142857142857142,-0.1561791240924146,10
17.152858809801636,-0.18323921413912278,10
17.162860476746125,-0.22536531986433755,10
17.172862143690615,-0.31530577758428396,10
17.182863810635105,-0.35642157858409157,10
17.1928654775796,-0.37896476128901907,10
17.202867144524088,-0.45104795815374965,10
17.212868811468578,-0.508426980548191,10
17.222870478413068,-0.5628174304163425,10
17.23287214535756,-0.6129263255031177,10
17.24287381230205,-0.6526402918781681,10
17.25287547924654,-0.6957276639813327,10
17.262877146191034,-0.7170097356971313,10
17.272878813135524,-0.7724040757875891,10
17.282880480080014,-0.7851979788796105,10
17.292882147024503,-0.8029696482737659,10
17.302883813968997,-0.779326331800188,10
17.312885480913486,-0.7682541470648312,10
17.322887147857976,-0.7450172927952686,10
17.332888814802466,-0.6900548547563555,10
17.34289048174696,-0.64503508626257,10
17.35289214869145,-0.568667376583276,10
17.36289381563594,-0.5332071030398632,10
17.372895482580432,-0.44233707103546627,10
17.382897149524922,-0.3496057303398791,10
17.392898816469412,-0.2973417074148728,10
17.4029004834139,-0.1602716703734647,10
17.412902150358395,-0.08338512675107355,10
17.422903817302885,0.016331438614374083,10
17.432905484247375,0.1103018889396022,10
17.442907151191864,0.21578810621039365,10
17.452908818136358,0.3138887891224973,10
17.462910485080847,0.3989658877414846,10
17.472912152025337,0.4903357161665029,10
17.48291381896983,0.5581013631940387,10
17.49291548591432,0.6064273387726586,10
17.50291715285881,0.6779265226037897,10
17.5129188198033,0.7159111962676008,10
17.522920486747793,0.7486522972630677,10
17.532922153692283,0.7703586184626372,10
17.542923820636773,0.7882508474444906,10
17.552925487581263,0.7705259708849365,10
17.562927154525756,0.7585442466559185,10
17.572928821470246,0.7439076956380724,10
17.582930488414735,0.7212194727825397,10
17.59293215535923,0.6771808168313174,10
17.60293382230372,0.6210557253871692,10
17.61293548924821,0.5880573864400164,10
17.622937156192698,0.5277831338035338,10
17.63293882313719,0.46698228207512843,10
17.64294049008168,0.43504098877796077,10
17.65294215702617,0.3679723853599011,10
17.66294382397066,0.298547735832098,10
17.672945490915154,0.2623663035228833,10
17.682947157859644,0.20576524466870583,10
17.692948824804134,0.1548303050921515,10
17.702950491748627,0.11814891398715414,10
17.712952158693117,0.0978059276420364,10
17.722953825637607,0.08033689372456543,10
17.732955492582096,0.03187391416989478,10
17.74295715952659,0.03867727403649716,10
17.75295882647108,0.012590050259647616,10
17.76296049341557,0.0023404731962405924,10
17.77296216036006,0.018534215368021294,10
17.782963827304552,0.014228884020348456,10
17.792965494249042,-0.008756678055445685,10
17.802967161193532,-0.0021893298666114352,10
17.812968828138025,-0.009245562311718327,10
17.822970495082515,-0.017016071473780932,10
17.832972162027005,0.014348154267586961,10
17.842973828971495,-0.015529987952109331,10
17.852975495915988,-0.024358611917207566,10
17.862977162860478,-0.01959156476418998,10
17.872978829804968,-0.06776894706196882,10
17.882980496749457,-0.08419744910407341,10
17.89298216369395,-0.12905227161535612,10
17.90298383063844,-0.15441632268249833,10
17.91298549758293,-0.1973074282747147,10
17.92298716452742,-0.23496381851502832,10
17.932988831471913,-0.31451142018422334,10
17.942990498416403,-0.3533500214875473,10
17.952992165360893,-0.41208460474582276,10
17.962993832305386,-0.47327976573935493,10
17.972995499249876,-0.528937153443867,10
17.982997166194366,-0.57535694057983,10
17.992998833138856,-0.6305076806264378,10
18.00300050008335,-0.6612150142007395,10
18.01300216702784,-0.7230397805315493,10
18.02300383397233,-0.7320044879130736,10
18.03300550091682,-0.7497706425023812,10
18.04300716786131,-0.7875223378091182,10
18.0530088348058,-0.787015220354788,10
18.06301050175029,-0.7615167569572939,10
18.073012168694785,-0.7501567933830037,10
18.083013835639274,-0.7207128494057898,10
18.093015502583764,-0.667730773510903,10
18.103017169528254,-0.6286395141291128,10
18.113018836472747,-0.579646200583581,10
18.123020503417237,-0.5101405004060734,10
18.133022170361727,-0.4236389576677286,10
18.143023837306217,-0.33336752994161467,10
18.15302550425071,-0.24790248260423717,10
18.1630271711952,-0.15122991269322494,10
18.17302883813969,-0.05189760238189415,10
18.183030505084183,0.05185824088650464,10
18.193032172028673,0.14766709264108951,10
18.203033838973163,0.25779554922579,10
18.213035505917652,0.3384423697424097,10
18.223037172862146,0.4130718574827871,10
18.233038839806635,0.5012861853129168,10
18.243040506751125,0.5844140081525911,10
18.253042173695615,0.6342613960240449,10
18.26304384064011,0.7034041349686059,10
18.273045507584598,0.7343121906485588,10
18.283047174529088,0.7689350467681741,10
18.29304884147358,0.7993955243071046,10
18.30305050841807,0.7740259861771625,10
18.31305217536256,0.7923867907228564,10
18.32305384230705,0.7569478514237882,10
18.333055509251544,0.7301127558583477,10
18.343057176196034,0.708575478381403,10
18.353058843140523,0.678186282180634,10
18.363060510085013,0.6133884295858801,10
18.373062177029507,0.5841600256222785,10
18.383063843973996,0.511095493142202,10
18.393065510918486,0.45192223537578513,10
18.40306717786298,0.40331594764501033,10
18.41306884480747,0.356779594535449,10
18.42307051175196,0.3091785949386487,10
18.43307217869645,0.24576239880521186,10
18.443073845640942,0.19219429126591683,10
18.453075512585432,0.1443363746021503,10
18.463077179529922,0.10641423530627302,10
18.47307884647441,0.10604677141278407,10
18.483080513418905,0.051937372119346646,10
18.493082180363395,0.024715399212008042,10
18.503083847307884,0.01016734115519337,10
18.513085514252378,0.009281615144925471,10
18.523087181196868,-0.006327681937213593,10
18.533088848141357,0.019529440239900244,10
18.543090515085847,-0.008434758186704555,10
18.55309218203034,0.005694387232292467,10
18.56309384897483,0.0030935051479968716,10
18.57309551591932,0.025314729785440283,10
18.58309718286381,-0.007025637694066359,10
18.593098849808303,-0.010956029278405815,10
18.603100516752793,-0.014039262404354276,10
18.613102183697283,-0.029591977823963507,10
18.623103850641776,-0.05033344368549887,10
18.633105517586266,-0.06539266289370445,10
18.643107184530756,-0.10434152579890274,10
18.653108851475245,-0.10863112043332111,10
18.66311051841974,-0.17370638146265693,10
18.67311218536423,-0.2272374572055016,10
18.68311385230872,-0.2578881321642162,10
18.693115519253208,-0.32125521749115526,10
18.7031171861977,-0.36793406020313224,10
18.71311885314219,-0.40862762005927256,10
18.72312052008668,-0.4764737143697083,10
18.73312218703117,-0.5413646380955913,10
18.743123853975664,-0.5945399347876336,10
18.753125520920154,-0.632959030445122,10
18.763127187864644,-0.6736553532666306,10
18.773128854809137,-0.7029561252213786,10
18.783130521753627,-0.7423246467193213,10
18.793132188698117,-0.7768243770342372,10
18.803133855642606,-0.7708936691170474,10
18.8131355225871,-0.7739899578170761,10
18.82313718953159,-0.7895579613390487,10
18.83313885647608,-0.7728398555234356,10
18.84314052342057,-0.7197822020307475,10
18.853142190365062,-0.6780269334687112,10
18.863143857309552,-0.6207168125288653,10
18.873145524254042,-0.5387022957316201,10
18.883147191198535,-0.47830436635445567,10
18.893148858143025,-0.38706194489669143,10
18.903150525087515,-0.3184895086205287,10
18.913152192032005,-0.21548835350145817,10
18.923153858976498,-0.11599157264009213,10
18.933155525920988,-0.028809336148390652,10
18.943157192865478,0.07166385299426574,10
18.953158859809967,0.15919172300300138,10
18.96316052675446,0.25076851901604696,10
18.97316219369895,0.3446148976853076,10
18.98316386064344,0.45519313639657305,10
18.993165527587934,0.531091015162811,10
19.003167194532423,0.5696337685626712,10
19.013168861476913,0.6561144757246745,10
19.023170528421403,0.7074478428149186,10
19.033172195365896,0.7312745388273816,10
19.043173862310386,0.7581644198748009,10
19.053175529254876,0.7617152761537153,10
19.063177196199366,0.7784254785931841,10
19.07317886314386,0.7662156555243202,10
19.08318053008835,0.7641883553822882,10
19.09318219703284,0.7397522837590456,10
19.103183863977332,0.6782078306850142,10
19.11318553092182,0.6768177810025761,10
19.12318719786631,0.608586019446431,10
19.1331888648108,0.5467983199751089,10
19.143190531755295,0.49302857108973397,10
19.153192198699784,0.44430609314879677,10
19.163193865644274,0.3865216720694365,10
19.173195532588764,0.3262923816238959,10
19.183197199533257,0.2715626837853531,10
19.193198866477747,0.2441960950849743,10
19.203200533422237,0.194048568780744,10
19.21320220036673,0.13053358192498082,10
19.22320386731122,0.10284768685436485,10
19.23320553425571,0.07995935983573742,10
19.2432072012002,0.054336868745785194,10
19.253208868144693,0.05105241249318775,10
19.263210535089183,0.014691539899255701,10
19.273212202033672,-0.0011479090558216484,10
19.283213868978162,0.0012085332550716473,10
19.293215535922656,0.005810615856119074,10
19.303217202867145,0.0054323108414053335,10
19.313218869811635,-0.022619887304372963,10
19.32322053675613,-0.004624970262927381,10
19.33322220370062,-0.009635175642545743,10
19.343223870645108,-0.011625417496050854,10
19.353225537589598,-0.014368025498558996,10
19.36322720453409,-0.025443721046634768,10
19.37322887147858,-0.03586975737184679,10
19.38323053842307,-0.03587255834282105,10
19.39323220536756,-0.06851253748205134,10
19.403233872312054,-0.09616315887344717,10
19.413235539256544,-0.12263916544478226,10
19.423237206201033,-0.1826043684920949,10
19.433238873145523,-0.22859818583026184,10
19.443240540090017,-0.2642051431142353,10
19.453242207034506,-0.32797971739951653,10
19.463243873978996,-0.3712792710768646,10
19.47324554092349,-0.44236906038794227,10
19.48324720786798,-0.4828318564410304,10
19.49324887481247,-0.5420692665432324,10
19.50325054175696,-0.6005986986642702,10
19.513252208701452,-0.669056363561444,10
19.523253875645942,-0.6883221218698142,10
19.53325554259043,-0.7329867816783092,10
19.54325720953492,-0.7572033343680272,10
19.553258876479415,-0.7691467164032675,10
19.563260543423905,-0.7870791227989464,10
19.573262210368394,-0.7796444091267157,10
19.583263877312888,-0.7738212256045564,10
19.593265544257378,-0.7444328375661928,10
19.603267211201867,-0.6998929328002418,10
19.613268878146357,-0.6679797001244059,10
19.62327054509085,-0.6034104366623754,10
19.63327221203534,-0.5264527002964812,10
19.64327387897983,-0.4631472551965234,10
19.65327554592432,-0.37937507473511545,10
19.663277212868813,-0.2772599871648962,10
19.673278879813303,-0.19688325187652114,10
19.683280546757793,-0.08561390645467694,10
19.693282213702286,0.013391531898214216,10
19.703283880646776,0.11613115025815814,10
19.713285547591266,0.20839607754751047,10
19.723287214535755,0.2922977929870932,10
19.73328888148025,0.37722594531571096,10
19.74329054842474,0.45035173983885207,10
19.75329221536923,0.550919572513385,10
19.763293882313718,0.6116660933420396,10
19.77329554925821,0.6776817536387084,10
19.7832972162027,0.7046217954488311,10
19.79329888314719,0.7512717310420146,10
19.803300550091684,0.761732995107467,10
19.813302217036174,0.7751868426605371,10
19.823303883980664,0.8003604809469993,10
19.833305550925154,0.7680410915663164,10
19.843307217869647,0.7459389674352132,10
19.853308884814137,0.7224518851322745,10
19.863310551758627,0.6819788078638186,10
19.873312218703116,0.637451673157783,10
19.88331388564761,0.5821302157236683,10
19.8933155525921,0.5391148308192126,10
19.90331721953659,0.4966201357430575,10
19.913318886481083,0.4370230827835313,10
19.923320553425572,0.35523238569070226,10
19.933322220370062,0.32306827120107934,10
19.943323887314552,0.26656815730661476,10
19.953325554259045,0.21952141529827113,10
19.963327221203535,0.1880588008109601,10
19.973328888148025,0.12835485672350677,10
19.983330555092515,0.09882067479284772,10
19.993332222037008,0.07793488393951073,10
20.003333888981498,0.05178811787286249,10
20.013335555925988,0.019305624479211858,10
20.02333722287048,0.009549756788379446,10
20.03333888981497,0.026037854102111926,10
20.04334055675946,-0.0004174077670973178,10
20.05334222370395,-0.005388948047410922,10
20.063343890648444,0.0030453409397401586,10
20.073345557592933,-0.008140633536230702,10
20.083347224537423,0.0010208694504217513,10
20.093348891481913,0.003698341119300101,10
20.103350558426406,0.0008221764119993816,10
20.113352225370896,-0.016719141176259878,10
20.123353892315386,-0.025635315310784106,10
20.133355559259876,-0.043044177148351306,10
20.14335722620437,-0.04465080008497754,10
20.15335889314886,-0.07174219767070307,10
20.16336056009335,-0.11978224703596534,10
20.173362227037842,-0.1572739385010345,10
20.18336389398233,-0.19944851021542875,10
20.19336556092682,-0.23928328925492803,10
20.20336722787131,-0.2790977847842585,10
20.213368894815805,-0.35588149976854205,10
20.223370561760294,-0.40484645776085226,10
20.233372228704784,-0.4764889893052924,10
20.243373895649274,-0.4988012775030217,10
20.253375562593767,-0.528566992127805,10
20.263377229538257,-0.6168845791888238,10
20.273378896482747,-0.6529501181506754,10
20.28338056342724,-0.6896291175670898,10
20.29338223037173,-0.7527376968327965,10
20.30338389731622,-0.7542785174277683,10
20.31338556426071,-0.7702554021918511,10
20.323387231205203,-0.7749196549064629,10
20.333388898149693,-0.7871157179302589,10
20.343390565094182,-0.7586090865289554,10
20.353392232038672,-0.7301674662986338,10
20.363393898983166,-0.6995729944394072,10
20.373395565927655,-0.6499134967114246,10
20.383397232872145,-0.576828062291709,10
20.39339889981664,-0.5265228543553697,10
20.40340056676113,-0.4402256369661772,10
20.413402233705618,-0.34443236731427945,10
20.423403900650108,-0.2597010859596813,10
20.4334055675946,-0.18512604081379705,10
20.44340723453909,-0.07045732164567835,10
20.45340890148358,0.0403858949321872,10
20.46341056842807,0.1194572880618581,10
20.473412235372564,0.2329589197784894,10
20.483413902317054,0.3155671165540646,10
20.493415569261543,0.41115271224265787,10
20.503417236206037,0.48974084510268,10
20.513418903150527,0.5639968233305567,10
20.523420570095016,0.6360308006712446,10
20.533422237039506,0.6887439758132005,10
20.543423903984,0.7338600412113359,10
20.55342557092849,0.7477903159019259,10
20.56342723787298,0.776323424213062,10
20.57342890481747,0.775475692285764,10
20.583430571761962,0.792353603705431,10
20.593432238706452,0.7616110977348528,10
20.60343390565094,0.7555559506877636,10
20.613435572595435,0.7115031164328963,10
20.623437239539925,0.6448051832661371,10
20.633438906484415,0.6403868145916949,10
20.643440573428904,0.5652534944186056,10
20.653442240373398,0.5303331390514006,10
20.663443907317887,0.47967223570010553,10
20.673445574262377,0.4112614889738444,10
20.683447241206867,0.3489866125154945,10
20.69344890815136,0.3226169135046705,10
20.70345057509585,0.25377955374957417,10
20.71345224204034,0.20917765336717012,10
20.723453908984833,0.17249509907984686,10
20.733455575929323,0.12459711340405007,10
20.743457242873813,0.078671137869105,10
20.753458909818303,0.07168803329555613,10
20.763460576762796,0.04587940939609922,10
20.773462243707286,0.004864045280169097,10
20.783463910651776,0.014603214492265048,10
20.793465577596265,0.007438099943136404,10
20.80346724454076,0.0035841378343056925,10
20.81346891148525,0.0035577846388178892,10
20.82347057842974,0.004312985166145621,10
20.83347224537423,0.009357207482203249,10
20.84347391231872,-0.00637763589001608,10
20.85347557926321,-0.0006256691512757362,10
20.8634772462077,-0.00760945717627071,10
20.873478913152194,0.007126070804655819,10
20.883480580096684,-0.03758252442045105,10
20.893482247041174,-0.044030672760362106,10
20.903483913985664,-0.0568679652393614,10
20.913485580930157,-0.0964616521314512,10
20.923487247874647,-0.11981626577165776,10
20.933488914819137,-0.16317928299294862,10
20.943490581763626,-0.20941716738066662,10
20.95349224870812,-0.247588869852112,10
20.96349391565261,-0.2979098949580813,10
20.9734955825971,-0.350661749215103,10
20.983497249541593,-0.40967725028421503,10
20.993498916486082,-0.4580568056368155,10
21.003500583430572,-0.5124713238973958,10
21.013502250375062,-0.580509544958675,10
21.023503917319555,-0.6368085973692523,10
21.033505584264045,-0.6640321118911632,10
21.043507251208535,-0.7157855419352286,10
21.053508918153025,-0.736926631512152,10
21.063510585097518,-0.765338401944234,10
21.073512252042008,-0.7642586776126699,10
21.083513918986498,-0.7915573070769543,10
21.09351558593099,-0.7919347047087412,10
21.10351725287548,-0.7618556017070228,10
21.11351891981997,-0.7139565053334977,10
21.12352058676446,-0.6803425157029268,10
21.133522253708954,-0.6301730315752861,10
21.143523920653443,-0.5714789269898582,10
21.153525587597933,-0.49767989136986956,10
21.163527254542423,-0.4257419720887077,10
21.173528921486916,-0.3262798429438755,10
21.183530588431406,-0.24612764204496868,10
21.193532255375896,-0.12687517376565913,10
21.20353392232039,-0.02555385681149569,10
21.21353558926488,0.04545948686124027,10
21.22353725620937,0.15221484444761338,10
21.23353892315386,0.25422788977630223,10
21.243540590098352,0.33833681861803466,10
21.25354225704284,0.4294863677946017,10
21.26354392398733,0.5100072996486446,10
21.27354559093182,0.5647150510935776,10
21.283547257876315,0.6337700546052605,10
21.293548924820804,0.7094829879269305,10
21.303550591765294,0.7356931903402704,10
21.313552258709787,0.7541257545683159,10
21.323553925654277,0.7708565955263482,10
21.333555592598767,0.7791178058015655,10
21.343557259543257,0.771705424621207,10
21.35355892648775,0.7691335397463605,10
21.36356059343224,0.7368315130846135,10
21.37356226037673,0.6989303453706871,10
21.38356392732122,0.6681351945596274,10
21.393565594265713,0.620290296191246,10
21.403567261210203,0.5785917239223826,10
21.413568928154692,0.5061690228384286,10
21.423570595099186,0.4581140783339282,10
21.433572262043675,0.40361813344382313,10
21.443573928988165,0.34748302782290386,10
21.453575595932655,0.29177177470857396,10
21.46357726287715,0.23992102715145247,10
21.473578929821638,0.206881125732849,10
21.483580596766128,0.16058501800596095,10
21.493582263710618,0.13344930288331963,10
21.50358393065511,0.08221892908429836,10
21.5135855975996,0.08329962946766795,10
21.52358726454409,0.029773160698888655,10
21.533588931488584,0.024720131283616793,10
21.543590598433074,0.026415543583027584,10
21.553592265377564,-0.007342924374068825,10
21.563593932322053,-0.0049271099516448634,10
21.573595599266547,-0.0019175029816224046,10
21.583597266211036,-0.0006901486502594441,10
21.593598933155526,0.006675574334403875,10
21.603600600100016,-0.0018193067979532032,10
21.61360226704451,-0.011893421796433204,10
21.623603933989,-0.019970394587359074,10
21.63360560093349,-0.021104005197037246,10
21.64360726787798,-0.01782503626771901,10
21.653608934822472,-0.06173001037139479,10
21.663610601766962,-0.06505340598485758,10
21.67361226871145,-0.11276341751292339,10
21.683613935655945,-0.13231424528364297,10
21.693615602600435,-0.1745956062518458,10
21.703617269544925,-0.2084216075441802,10
21.713618936489414,-0.24936339446940312,10
21.723620603433908,-0.3141214598829436,10
21.733622270378397,-0.3748065158422859,10
21.743623937322887,-0.4306974674256276,10
21.753625604267377,-0.49837169759552646,10
21.76362727121187,-0.5387454586562999,10
21.77362893815636,-0.5800363208667316,10
21.78363060510085,-0.6365463303776083,10
21.793632272045343,-0.6889780756986985,10
21.803633938989833,-0.7320152403845307,10
21.813635605934323,-0.7482407776067999,10
21.823637272878813,-0.7533476188763905,10
21.833638939823306,-0.7661059003443182,10
21.843640606767796,-0.7779502135952436,10
21.853642273712286,-0.7554597082188617,10
21.863643940656775,-0.7587024964555256,10
21.87364560760127,-0.7173930288524931,10
21.88364727454576,-0.6821599272329026,10
21.893648941490248,-0.6151855412851964,10
21.90365060843474,-0.5579907722822968,10
21.91365227537923,-0.4780242188084698,10
21.92365394232372,-0.4010607722676295,10
21.93365560926821,-0.29804997883791695,10
21.943657276212704,-0.22038479570814581,10
21.953658943157194,-0.1116327063618808,10
21.963660610101684,0.002080173021915696,10
21.973662277046174,0.08353562894019259,10
21.983663943990667,0.182380851966638,10
21.993665610935157,0.2797287418335694,10
22.003667277879646,0.3713568183281951,10
22.01366894482414,0.47029705383003306,10
22.02367061176863,0.5328635853640691,10
22.03367227871312,0.597623433487751,10
22.04367394565761,0.6567363114045055,10
22.053675612602103,0.7025281097001898,10
22.063677279546592,0.7385171348078357,10
22.073678946491082,0.7594718642095519,10
22.083680613435572,0.788702834002003,10
22.093682280380065,0.7863652413789963,10
22.103683947324555,0.7675164391357245,10
22.113685614269045,0.7580700909684713,10
22.123687281213538,0.7253433624692279,10
22.133688948158028,0.6807754349938643,10
22.143690615102518,0.6592804964324319,10
22.153692282047007,0.5940416976388933,10
22.1636939489915,0.5575512572712958,10
22.17369561593599,0.5151176934771088,10
22.18369728288048,0.4350110779151279,10
22.19369894982497,0.3776250722206706,10
22.203700616769463,0.32670711731726404,10
22.213702283713953,0.285522742238688,10
22.223703950658443,0.22797174685838137,10
22.233705617602936,0.1836568148103251,10
22.243707284547426,0.155272660462801,10
22.253708951491916,0.11258439404817339,10
22.263710618436406,0.08150320738191393,10
22.2737122853809,0.058023657056563864,10
22.28371395232539,0.04187585363158762,10
22.29371561926988,0.015682471682192733,10
22.30371728621437,0.014887204032539774,10
22.313718953158862,0.007907545503416446,10
22.32372062010335,-0.001125033367924542,10
22.33372228704784,-0.012712160490223764,10
22.34372395399233,-3.6996228871964074e-05,10
22.353725620936824,0.012826988943057116,10
22.363727287881314,-0.002746521294770752,10
22.373728954825804,-0.012848238848027915,10
22.383730621770297,-0.010541478957815362,10
22.393732288714787,-0.018587882566682173,10
22.403733955659277,-0.021833647594912645,10
22.413735622603767,-0.05199133914802015,10
22.42373728954826,-0.07896166328240604,10
22.43373895649275,-0.10647752773520502,10
22.44374062343724,-0.15624155858421784,10
22.45374229038173,-0.17507986033823852,10
22.463743957326223,-0.2497042039976645,10
22.473745624270713,-0.28920214910619285,10
22.483747291215202,-0.3324206897760637,10
22.493748958159696,-0.37308634233142984,10
22.503750625104185,-0.4454862444292735,10
22.513752292048675,-0.485766616792337,10
22.523753958993165,-0.5451555013044298,10
22.53375562593766,-0.6117293765173377,10
22.543757292882148,-0.6538079864890172,10
22.553758959826638,-0.7160391559558994,10
22.563760626771128,-0.7158885015532133,10
22.57376229371562,-0.7570530776031229,10
22.58376396066011,-0.7632382815538175,10
22.5937656276046,-0.772718977278287,10
22.603767294549094,-0.7873381321273156,10
22.613768961493584,-0.7454903429963496,10
22.623770628438074,-0.7308153646588841,10
22.633772295382563,-0.718194993772866,10
22.643773962327057,-0.6615309473629803,10
22.653775629271546,-0.6201774764168022,10
22.663777296216036,-0.5298869927965596,10
22.673778963160526,-0.45802252253112585,10
22.68378063010502,-0.35809453734755353,10
22.69378229704951,-0.27342332164286354,10
22.703783963994,-0.1823785874715135,10
22.713785630938492,-0.07824620357527079,10
22.723787297882982,0.004858838635862754,10
22.733788964827472,0.12124470483831934,10
22.74379063177196,0.2238707119340453,10
22.753792298716455,0.30889868484149813,10
22.763793965660945,0.38075001848459,10
22.773795632605434,0.4669523322159882,10
22.783797299549924,0.5637494337278548,10
22.793798966494418,0.6158208379155299,10
22.803800633438907,0.6638596107469692,10
22.813802300383397,0.6988573345229151,10
22.82380396732789,0.7485776033295245,10
22.83380563427238,0.7829273696219541,10
22.84380730121687,0.7814356912506812,10
22.85380896816136,0.7774770306583098,10
22.863810635105853,0.7760939086677663,10
22.873812302050343,0.7469857768889009,10
22.883813968994833,0.7158752151180875,10
22.893815635939323,0.6976335221175987,10
22.903817302883816,0.6389598890189242,10
22.913818969828306,0.5910746854829656,10
22.923820636772795,0.536174223972703,10
22.93382230371729,0.47644720002597496,10
22.94382397066178,0.430178861793663,10
22.95382563760627,0.38348357247088916,10
22.963827304550758,0.3007141448796693,10
22.97382897149525,0.2511975782261633,10
22.98383063843974,0.22268609683653984,10
22.99383230538423,0.19857512552581708,10
23.00383397232872,0.1497918553030336,10
23.013835639273214,0.10019896612159981,10
23.023837306217704,0.05704745215999811,10
23.033838973162194,0.020363208528721952,10
23.043840640106687,0.02383459341896625,10
23.053842307051177,0.024037482211946536,10
23.063843973995667,0.0033352054925693472,10
23.073845640940156,-0.0004955181164662172,10
23.08384730788465,0.029065112539492042,10
23.09384897482914,0.0016052998867098405,10
23.10385064177363,0.011397098212164357,10
23.11385230871812,0.0018787619839896476,10
23.123853975662612,0.005704811259833436,10
23.133855642607102,-0.009714447755549548,10
23.143857309551592,-0.013392648158375141,10
23.153858976496082,-0.03857776089702648,10
23.163860643440575,-0.05443681173095941,10
23.173862310385065,-0.05802384122689917,10
23.183863977329555,-0.09473380082356335,10
23.193865644274048,-0.11015592297395278,10
23.203867311218538,-0.1519269707372528,10
23.213868978163028,-0.18545648666270062,10
23.223870645107517,-0.22032124932142427,10
23.23387231205201,-0.276666214097032,10
23.2438739789965,-0.3318714979576565,10
23.25387564594099,-0.41316850841683445,10
23.26387731288548,-0.477788295578254,10
23.273878979829973,-0.5045265243452013,10
23.283880646774463,-0.5532100500952714,10
23.293882313718953,-0.6275130532939975,10
23.303883980663446,-0.6669832593600373,10
23.313885647607936,-0.7124511412271356,10
23.323887314552426,-0.7233208227743058,10
23.333888981496916,-0.7528276697538251,10
23.34389064844141,-0.7687979669673433,10
23.3538923153859,-0.7718081734429271,10
23.36389398233039,-0.7716468146495638,10
23.37389564927488,-0.7610723993617228,10
23.38389731621937,-0.7240913386963772,10
23.39389898316386,-0.7002652072116075,10
23.40390065010835,-0.6485669065062437,10
23.413902317052845,-0.5836278560208625,10
23.423903983997334,-0.5267794844205625,10
23.433905650941824,-0.42338130774933475,10
23.443907317886314,-0.34536369455971966,10
23.453908984830807,-0.2676990114292135,10
23.463910651775297,-0.14334305180317697,10
23.473912318719787,-0.06328491613086436,10
23.483913985664277,0.015449566126919764,10
23.49391565260877,0.12565082761872276,10
23.50391731955326,0.228787187843343,10
23.51391898649775,0.32727952841359675,10
23.523920653442243,0.4048172730484917,10
23.533922320386733,0.4937961458197151,10
23.543923987331222,0.5566615446393495,10
23.553925654275712,0.6331620877581768,10
23.563927321220206,0.7019745666819451,10
23.573928988164695,0.7295594836390839,10
23.583930655109185,0.7545650670436758,10
23.593932322053675,0.7509208102150398,10
23.60393398899817,0.7737282820822933,10
23.613935655942658,0.7769948002221917,10
23.623937322887148,0.7591729978409528,10
23.63393898983164,0.7447114460798117,10
23.64394065677613,0.7021514502479387,10
23.65394232372062,0.6666449290368989,10
23.66394399066511,0.6348660364051181,10
23.673945657609604,0.5680111144834583,10
23.683947324554094,0.5246703727874034,10
23.693948991498583,0.474616283037847,10
23.703950658443073,0.426400099725102,10
23.713952325387567,0.3479809538012546,10
23.723953992332056,0.3068340282025478,10
23.733955659276546,0.25116722484269177,10
23.74395732622104,0.20013387132248012,10
23.75395899316553,0.15329935592017863,10
23.76396066011002,0.1186524844383773,10
23.77396232705451,0.10141757454431014,10
23.783963993999002,0.06727927981392501,10
23.793965660943492,0.047610766643121576,10
23.80396732788798,0.004107429354426904,10
23.81396899483247,0.02596288428469617,10
23.823970661776965,0.015626597508805712,10
23.833972328721455,-0.006305039126493347,10
23.843973995665944,-0.003503680386971175,10
23.853975662610434,-0.0025690202525316475,10
23.863977329554928,-5.1240919753724765e-05,10
23.873978996499417,-0.004504118014868131,10
23.883980663443907,-0.004933820417621561,10
23.8939823303884,8.603955471044727e-05,10
23.90398399733289,-0.006214137152954671,10
23.91398566427738,-0.028813912580483148,10
23.92398733122187,-0.04552784939923145,10
23.933988998166363,-0.06523101090812787,10
23.943990665110853,-0.09636186865169172,10
23.953992332055343,-0.11986224209981584,10
23.963993998999833,-0.15818033453110739,10
23.973995665944326,-0.2029964504009479,10
23.983997332888816,-0.23601065330051724,10
23.993998999833305,-0.30919373537956524,10
24.0040006667778,-0.3462810580134386,10
24.01400233372229,-0.44675626655027095,10
24.02400400066678,-0.47102073254273746,10
24.034005667611268,-0.5299602713724936,10
24.04400733455576,-0.5813617176065502,10
24.05400900150025,-0.6352073464752215,10
24.06401066844474,-0.683527392711882,10
24.07401233538923,-0.7105222926347423,10
24.084014002333724,-0.7339472267397138,10
24.094015669278214,-0.769660136224583,10
24.104017336222704,-0.7686304574485678,10
24.114019003167197,-0.7747878569804834,10
24.124020670111687,-0.760714229478226,10
24.134022337056177,-0.7574622619596522,10
24.144024004000666,-0.7220053472866647,10
24.15402567094516,-0.679383233466334,10
24.16402733788965,-0.6159925904605863,10
24.17402900483414,-0.5549193468602365,10
24.18403067177863,-0.4959698642277346,10
24.194032338723122,-0.38669820422673307,10
24.204034005667612,-0.3120782464066135,10
24.214035672612102,-0.23627376452258883,10
24.224037339556595,-0.13277454042799458,10
24.234039006501085,-0.03301623241361033,10
24.244040673445575,0.0714271007868854,10
24.254042340390065,0.15467586329655586,10
24.264044007334558,0.24673122778086895,10
24.274045674279048,0.3309466152425697,10
24.284047341223538,0.45018533964254775,10
24.294049008168027,0.5137172620964364,10
24.30405067511252,0.5647008924107731,10
24.31405234205701,0.6311196427379979,10
24.3240540090015,0.6840953082765395,10
24.334055675945994,0.7472042415775002,10
24.344057342890483,0.7443780400346659,10
24.354059009834973,0.767543121196843,10
24.364060676779463,0.7742114734600836,10
24.374062343723956,0.7767293540098763,10
24.384064010668446,0.7512705923277199,10
24.394065677612936,0.7118193063191106,10
24.404067344557426,0.7068756485969163,10
24.41406901150192,0.6484617770647405,10
24.42407067844641,0.5973615017185052,10
24.4340723453909,0.5479964926249291,10
24.444074012335392,0.4911239202542846,10
24.45407567927988,0.4627830985145838,10
24.46407734622437,0.38864285174342544,10
24.47407901316886,0.3437661185349199,10
24.484080680113355,0.28514838225400263,10
24.494082347057844,0.22647927629886372,10
24.504084014002334,0.20125552748289355,10
24.514085680946824,0.1451385839384993,10
24.524087347891317,0.11574341890017328,10
24.534089014835807,0.08882383873932762,10
24.544090681780297,0.051056226832265406,10
24.554092348724787,0.0452262846365937,10
24.56409401566928,0.04130542630516948,10
24.57409568261377,0.00954230007322519,10
24.58409734955826,0.009475469113756296,10
24.594099016502753,0.009304258413274535,10
24.604100683447243,0.009397413966360192,10
24.614102350391732,1.7092731247389014e-05,10
24.624104017336222,0.0040231072316486835,10
24.634105684280716,0.006120123777424643,10
24.644107351225205,-0.002937844515268928,10
24.654109018169695,-0.0010634584106907624,10
24.664110685114185,-0.02289509267962701,10
24.67411235205868,-0.0404066595315684,10
24.684114019003168,-0.03994029716841798,10
24.694115685947658,-0.06289543802501546,10
24.70411735289215,-0.11459274488056924,10
24.71411901983664,-0.12332174000041382,10
24.72412068678113,-0.160179862985908,10
24.73412235372562,-0.2107775926048804,10
24.744124020670114,-0.2551210818749451,10
24.754125687614604,-0.32483928501255277,10
24.764127354559093,-0.3794259251288041,10
24.774129021503583,-0.4362139041551716,10
24.784130688448077,-0.4994451638553796,10
24.794132355392566,-0.5482509571059158,10
24.804134022337056,-0.5834229474220128,10
24.81413568928155,-0.6384201074672662,10
24.82413735622604,-0.682313795883564,10
24.83413902317053,-0.7224003865579883,10
24.84414069011502,-0.7492861842526373,10
24.854142357059512,-0.7635482059848315,10
24.864144024004002,-0.77990126961434,10
24.87414569094849,-0.7693815674985566,10
24.88414735789298,-0.7860557685942784,10
24.894149024837475,-0.7311295122610388,10
24.904150691781965,-0.7053568137864776,10
24.914152358726454,-0.6629823757718186,10
24.924154025670948,-0.619595865223455,10
24.934155692615438,-0.5515448216852596,10
24.944157359559927,-0.4699240219820433,10
24.954159026504417,-0.3985464768758381,10
24.96416069344891,-0.292828295258985,10
24.9741623603934,-0.1965745305868854,10
24.98416402733789,-0.09151207183637435,10
24.99416569428238,0.010984826263662685,10
25.004167361226873,0.09812167433483057,10
25.014169028171363,0.16986626298949087,10
25.024170695115853,0.28298848636866325,10
25.034172362060346,0.3696147792230892,10
25.044174029004836,0.4516522692969469,10
25.054175695949326,0.530254823764302,10
25.064177362893815,0.5867881258803971,10
25.07417902983831,0.6692406767248469,10
25.0841806967828,0.7073195636884951,10
25.09418236372729,0.7419542958225496,10
25.104184030671778,0.769466450278755,10
25.11418569761627,0.793913337555213,10
25.12418736456076,0.7776654628950082,10
25.13418903150525,0.7666886376682507,10
25.144190698449744,0.7610187638075184,10
25.154192365394234,0.7327697201563675,10
25.164194032338724,0.6901914392036432,10
25.174195699283214,0.6519427957963319,10
25.184197366227707,0.5977792680576264,10
25.194199033172197,0.5335676156456634,10
25.204200700116687,0.48700145791159505,10
25.214202367061176,0.4392736403457459,10
25.22420403400567,0.38161929747798323,10
25.23420570095016,0.3239078182573704,10
25.24420736789465,0.27364595801307307,10
25.25420903483914,0.23233042650631772,10
25.264210701783632,0.17730283750345754,10
25.274212368728122,0.1309139272733977,10
25.284214035672612,0.0899549185660524,10
25.294215702617105,0.08763751794003372,10
25.304217369561595,0.05450718671547308,10
25.314219036506085,0.01529186854455854,10
25.324220703450575,0.026126817950591668,10
25.334222370395068,0.013628808283320006,10
25.344224037339558,-0.014254962443909353,10
25.354225704284048,0.00740662711052641,10
25.364227371228537,-0.0037809091863089464,10
25.37422903817303,-0.001433916302239863,10
25.38423070511752,0.004121776747023892,10
25.39423237206201,-0.01387502219931017,10
25.404234039006504,-0.017441772293929028,10
25.414235705950993,-0.010002861808193833,10
25.424237372895483,-0.0338305591397231,10
25.434239039839973,-0.04191317213213179,10
25.444240706784466,-0.05633344341403765,10
25.454242373728956,-0.07766491188524899,10
25.464244040673446,-0.11864980112760153,10
25.474245707617936,-0.13182126434570224,10
25.48424737456243,-0.1952701607841315,10
25.49424904150692,-0.24002051561817975,10
25.50425070845141,-0.28253085724794397,10
25.514252375395902,-0.3342459400074438,10
25.52425404234039,-0.4052865987680778,10
25.53425570928488,-0.45359487623712363,10
25.54425737622937,-0.4839342765262362,10
25.554259043173865,-0.5570306680683964,10
25.564260710118354,-0.6041746119772403,10
25.574262377062844,-0.6622011848444713,10
25.584264044007334,-0.6977201796837283,10
25.594265710951827,-0.7329434491668614,10
25.604267377896317,-0.7531442902314889,10
25.614269044840807,-0.7750619204230275,10
25.6242707117853,-0.7922621745505127,10
25.63427237872979,-0.7669202045000272,10
25.64427404567428,-0.7615850822021537,10
25.65427571261877,-0.7308872774680416,10
25.664277379563263,-0.7170244922339639,10
25.674279046507753,-0.6493300224246497,10
25.684280713452242,-0.5991122441995607,10
25.694282380396732,-0.5079761679081353,10
25.704284047341226,-0.4492805150624337,10
25.714285714285715,-0.36360032005160114,10
25.724287381230205,-0.2888337336617808,10
25.7342890481747,-0.16964690078131248,10
25.744290715119188,-0.07529457285107988,10
25.754292382063678,0.022346233792062596,10
25.764294049008168,0.12028841870286276,10
25.77429571595266,0.2198093091061264,10
25.78429738289715,0.3056275724480719,10
25.79429904984164,0.404307193516343,10
25.80430071678613,0.47004339259916966,10
25.814302383730624,0.5439753178979494,10
25.824304050675114,0.6331249690047575,10
25.834305717619603,0.6724216264472933,10
25.844307384564097,0.7252661100691865,10
25.854309051508586,0.7500179475340749,10
25.864310718453076,0.7592035297210414,10
25.874312385397566,0.7899458220190045,10
25.88431405234206,0.7688479701417723,10
25.89431571928655,0.7740406172892675,10
25.90431738623104,0.7640121518410595,10
25.91431905317553,0.7063823691366052,10
25.924320720120022,0.668223877253235,10
25.934322387064512,0.6179199410337737,10
25.944324054009,0.5940103977651415,10
25.954325720953495,0.5367517552881522,10
25.964327387897985,0.4862883786917864,10
25.974329054842475,0.43346838582882846,10
25.984330721786964,0.35735807024439886,10
25.994332388731458,0.31955436837953044,10
26.004334055675947,0.26363863870641374,10
26.014335722620437,0.214014584264578,10
26.024337389564927,0.17326118724236536,10
26.03433905650942,0.14894000362087842,10
26.04434072345391,0.09182734881998597,10
26.0543423903984,0.06759781898441111,10
26.06434405734289,0.05819626326939657,10
26.074345724287383,0.04229351889685,10
26.084347391231873,0.020772740121135825,10
26.094349058176363,-0.0005697375210413098,10
26.104350725120856,0.023006322310331943,10
26.114352392065346,-0.008823145413427864,10
26.124354059009836,0.013229043981609739,10
26.134355725954325,-0.00217341564017434,10
26.14435739289882,0.01198923120952423,10
26.15435905984331,-0.00625315329166442,10
26.1643607267878,-0.013831317957057875,10
26.174362393732288,-0.01139001067319216,10
26.18436406067678,-0.032147001578543576,10
26.19436572762127,-0.0572388043716829,10
26.20436739456576,-0.04792610356582627,10
26.214369061510254,-0.08069624836078265,10
26.224370728454744,-0.1124159912574405,10
26.234372395399234,-0.1491524900736709,10
26.244374062343724,-0.19807892073065858,10
26.254375729288217,-0.2565828627081375,10
26.264377396232707,-0.2836489780119507,10
26.274379063177197,-0.3721105654402873,10
26.284380730121686,-0.3939538021510029,10
26.29438239706618,-0.4618249466746068,10
26.30438406401067,-0.5210039372680145,10
26.31438573095516,-0.5639347425848666,10
26.324387397899653,-0.6131954004909349,10
26.334389064844142,-0.6667698871595473,10
26.344390731788632,-0.6977441298810103,10
26.354392398733122,-0.7360142858849493,10
26.364394065677615,-0.742193063800962,10
26.374395732622105,-0.7691079504340028,10
26.384397399566595,-0.7896703612023381,10
26.394399066511085,-0.7651563253876151,10
26.404400733455578,-0.7469273915971616,10
26.414402400400068,-0.7289298560517316,10
26.424404067344557,-0.687096168281008,10
26.43440573428905,-0.6291094862268559,10
26.44440740123354,-0.5692692899697069,10
26.45440906817803,-0.5046697927189249,10
26.46441073512252,-0.4321301553170228,10
26.474412402067014,-0.3313526064756115,10
26.484414069011503,-0.240417387703301,10
26.494415735955993,-0.15152069105600113,10
26.504417402900483,-0.052868908692617615,10
26.514419069844976,0.03429645278277496,10
26.524420736789466,0.1476066323760421,10
26.534422403733956,0.2339937823729558,10
26.54442407067845,0.34650236002640644,10
26.55442573762294,0.40008031794441284,10
26.56442740456743,0.5261390479944179,10
26.57442907151192,0.5699092364373747,10
26.584430738456412,0.6350054656903781,10
26.5944324054009,0.6741235086463122,10
26.60443407234539,0.7278696024888914,10
26.61443573928988,0.7642335066307508,10
26.624437406234374,0.7685099132131308,10
26.634439073178864,0.7716826725980939,10
26.644440740123354,0.7753243238295546,10
26.654442407067847,0.7597186752844813,10
26.664444074012337,0.7408149276472407,10
26.674445740956827,0.7050165626669018,10
26.684447407901317,0.6699828871232089,10
26.69444907484581,0.6083952519983128,10
26.7044507417903,0.5617082871194904,10
26.71445240873479,0.5143588327412062,10
26.72445407567928,0.462263664627837,10
26.734455742623773,0.41243676681034286,10
26.744457409568263,0.3716677350216328,10
26.754459076512752,0.3046142727229985,10
26.764460743457242,0.24552561362503889,10
26.774462410401735,0.19888463526128763,10
26.784464077346225,0.1566561952897199,10
26.794465744290715,0.14259712938136918,10
26.80446741123521,0.08216158177114097,10
26.814469078179698,0.04236470156916787,10
26.824470745124188,0.058238445557877244,10
26.834472412068678,0.023891810497427644,10
26.84447407901317,0.01442032310291115,10
26.85447574595766,0.01687114294321515,10
26.86447741290215,-0.013968851236957503,10
26.87447907984664,0.011122744472700532,10
26.884480746791134,0.012850660635214773,10
26.894482413735624,-0.0012737908278732466,10
26.904484080680113,-0.011967417610848886,10
26.914485747624607,-0.0112197993383374,10
26.924487414569096,-0.01896008063068172,10
26.934489081513586,-0.007140981141569526,10
26.944490748458076,-0.028559905892835913,10
26.95449241540257,-0.03213532802941603,10
26.96449408234706,-0.04288641884655461,10
26.97449574929155,-0.10515076524542528,10
26.98449741623604,-0.1251585410382573,10
26.994499083180532,-0.16434373688269777,10
27.004500750125022,-0.22538027953214848,10
27.01450241706951,-0.2630926375064732,10
27.024504084014005,-0.3092587186703784,10
27.034505750958495,-0.3548762004340949,10
27.044507417902985,-0.42381739228644316,10
27.054509084847474,-0.4645917463860687,10
27.064510751791968,-0.521341419504462,10
27.074512418736457,-0.5819136838228853,10
27.084514085680947,-0.6224466932485513,10
27.094515752625437,-0.6920020677033573,10
27.10451741956993,-0.7031928616518469,10
27.11451908651442,-0.7523420117503847,10
27.12452075345891,-0.7611200414845685,10
27.134522420403403,-0.7766181432047595,10
27.144524087347893,-0.7617130283964523,10
27.154525754292383,-0.7741091067842867,10
27.164527421236873,-0.7443808572832904,10
27.174529088181366,-0.713736131960712,10
27.184530755125856,-0.6586195970275938,10
27.194532422070345,-0.6316825758415966,10
27.204534089014835,-0.5601497713030157,10
27.21453575595933,-0.4977420494112217,10
27.22453742290382,-0.38791306490566363,10
27.234539089848308,-0.31790508944503953,10
27.2445407567928,-0.2267653572109609,10
27.25454242373729,-0.12543053409754049,10
27.26454409068178,-0.03136987172966178,10
27.27454575762627,0.06600681592073515,10
27.284547424570764,0.17015204738174888,10
27.294549091515254,0.25095840034799327,10
27.304550758459744,0.3554657711470044,10
27.314552425404234,0.4501126697451393,10
27.324554092348727,0.5381931523573641,10
27.334555759293217,0.614180916200758,10
27.344557426237706,0.6668451912062037,10
27.3545590931822,0.6929210449539278,10
27.36456076012669,0.7331100160342312,10
27.37456242707118,0.7612436914509093,10
27.38456409401567,0.7658968291717673,10
27.394565760960162,0.7665118336884151,10
27.404567427904652,0.7831587032342043,10
27.414569094849142,0.7556541551608561,10
27.424570761793632,0.7285265591597339,10
27.434572428738125,0.7035937853769965,10
27.444574095682615,0.6523372908987689,10
27.454575762627105,0.6080312141947649,10
27.464577429571595,0.5506998700702721,10
27.474579096516088,0.5311354008732636,10
27.484580763460578,0.451968627150083,10
27.494582430405067,0.39202479134088364,10
27.50458409734956,0.34195162180730876,10
27.51458576429405,0.27714252945064644,10
27.52458743123854,0.23732251316295722,10
27.53458909818303,0.18941705007106446,10
27.544590765127523,0.1441897820700993,10
27.554592432072013,0.10113585794746738,10
27.564594099016503,0.05604324927415011,10
27.574595765960993,0.051794230277049956,10
27.584597432905486,0.04153613862874696,10
27.594599099849976,0.04126588626591321,10
27.604600766794466,0.00825726924376444,10
27.61460243373896,0.007426691794724081,10
27.62460410068345,-0.013224940191360121,10
27.63460576762794,-0.004513400635427684,10
27.64460743457243,-0.005125698635095506,10
27.65460910151692,-0.007290360626517918,10
27.66461076846141,-0.0033917610201427795,10
27.6746124354059,-0.00025275544982114595,10
27.68461410235039,-0.006130767249392629,10
27.694615769294884,-0.024383084662495957,10
27.704617436239374,-0.030198041529618382,10
27.714619103183864,-0.04651908878928922,10
27.724620770128357,-0.1002934571339476,10
27.734622437072847,-0.13479343563555177,10
27.744624104017337,-0.13855349279181647,10
27.754625770961827,-0.18519122585924086,10
27.76462743790632,-0.22636209926769257,10
27.77462910485081,-0.268238838940385,10
27.7846307717953,-0.304280858902876,10
27.79463243873979,-0.37803460689566437,10
27.804634105684283,-0.42727032960935973,10
27.814635772628773,-0.4998416295848951,10
27.824637439573262,-0.5678273330319079,10
27.834639106517756,-0.6109086618217507,10
27.844640773462245,-0.6444290296492023,10
27.854642440406735,-0.6876700893536318,10
27.864644107351225,-0.717359890968691,10
27.87464577429572,-0.7474794983598853,10
27.884647441240208,-0.764149619906315,10
27.894649108184698,-0.7773840269818327,10
27.904650775129188,-0.763328556733381,10
27.91465244207368,-0.7647213076099253,10
27.92465410901817,-0.7438960683415953,10
27.93465577596266,-0.7045146261077188,10
27.944657442907154,-0.6678779009682239,10
27.954659109851644,-0.5920466502033612,10
27.964660776796133,-0.5305600612306446,10
27.974662443740623,-0.45062802023122084,10
27.984664110685117,-0.36816305264193705,10
27.994665777629606,-0.3097752218667988,10
28.004667444574096,-0.20546813136057163,10
28.014669111518586,-0.104184297305911,10
28.02467077846308,0.001296380400065519,10
28.03467244540757,0.1109423028775976,10
28.04467411235206,0.20696616324906847,10
28.054675779296552,0.29659655945250846,10
28.064677446241042,0.3844222936335959,10
28.07467911318553,0.4578595485930691,10
28.08468078013002,0.5400472138920815,10
28.094682447074515,0.6018434856859985,10
28.104684114019005,0.6753675672807866,10
28.114685780963494,0.695301170320469,10
28.124687447907984,0.7575503404025424,10
28.134689114852478,0.7656989854669263,10
28.144690781796967,0.7882197987727004,10
28.154692448741457,0.7905100081599271,10
28.164694115685947,0.7667751843345804,10
28.17469578263044,0.755583410450769,10
28.18469744957493,0.7216340521981479,10
