time,ppg_signal,subject_id
0.0,0.006561548684092093,8
0.010001666944490749,0.0615373929708707,8
0.020003333888981498,0.1712725197779946,8
0.030005000833472247,0.2383331677118505,8
0.040006667777962995,0.31231939483786053,8
0.050008334722453744,0.39274835619608045,8
0.06001000166694449,0.44786059004615897,8
0.07001166861143523,0.5271830025795988,8
0.08001333555592599,0.5899221450509584,8
0.09001500250041675,0.6282056111514063,8
0.10001666944490749,0.6533363139092215,8
0.11001833638939823,0.7053423702343309,8
0.12002000333388899,0.7339609435727424,8
0.13002167027837974,0.7492580347459565,8
0.14002333722287047,0.7794021398590635,8
0.15002500416736123,0.7669658958000435,8
0.16002667111185198,0.7658349748274768,8
0.17002833805634274,0.7670419305931109,8
0.1800300050008335,0.7493595815232618,8
0.19003167194532422,0.7213915135550543,8
0.20003333888981498,0.6942403811505349,8
0.21003500583430573,0.6584779084770618,8
0.22003667277879646,0.6360077909151847,8
0.23003833972328722,0.6123771948884204,8
0.24004000666777797,0.5456930276119211,8
0.2500416736122687,0.5188840968241617,8
0.2600433405567595,0.48168329316906866,8
0.2700450075012502,0.4186631153720534,8
0.28004667444574094,0.3673332162853914,8
0.2900483413902317,0.34513306406377814,8
0.30005000833472245,0.28743444799643175,8
0.31005167527921323,0.22728552780872494,8
0.32005334222370396,0.20901017592690804,8
0.3300550091681947,0.1816563062341983,8
0.3400566761126855,0.14585143721360866,8
0.3500583430571762,0.10784410133737546,8
0.360060010001667,0.07706748878862861,8
0.3700616769461577,0.06644252911728414,8
0.38006334389064844,0.05656895814725084,8
0.3900650108351392,0.02821017589456396,8
0.40006667777962995,0.030932109921006118,8
0.4100683447241207,0.012870581082406388,8
0.42007001166861146,0.004876839968447051,8
0.4300716786131022,0.0038138774581201584,8
0.4400733455575929,0.0014393162292850447,8
0.4500750125020837,0.0021620123222177686,8
0.46007667944657443,-0.004054970355536793,8
0.4700783463910652,0.0027760676158067026,8
0.48008001333555594,-0.026799731402330672,8
0.49008168028004667,0.007502645761132139,8
0.5000833472245374,0.0057190646406172566,8
0.5100850141690282,-0.002581004853384373,8
0.520086681113519,-0.014883819680012969,8
0.5300883480580096,-0.033436238737931105,8
0.5400900150025004,-0.024910823516936444,8
0.5500916819469912,-0.06742502865718455,8
0.5600933488914819,-0.0774078346867337,8
0.5700950158359727,-0.13312704555045274,8
0.5800966827804634,-0.1300197993189992,8
0.5900983497249542,-0.182108630754514,8
0.6001000166694449,-0.19881521529133525,8
0.6101016836139357,-0.2444929974122812,8
0.6201033505584265,-0.2934873540168242,8
0.6301050175029171,-0.327542583049712,8
0.6401066844474079,-0.38924927445860585,8
0.6501083513918987,-0.42636312972155566,8
0.6601100183363894,-0.47321105586539414,8
0.6701116852808802,-0.4916726307692911,8
0.680113352225371,-0.5636799866298593,8
0.6901150191698616,-0.6105921902521088,8
0.7001166861143524,-0.6466691018776787,8
0.7101183530588432,-0.6798595892864367,8
0.720120020003334,-0.7040528789967052,8
0.7301216869478246,-0.7149070928284509,8
0.7401233538923154,-0.7562495923337185,8
0.7501250208368062,-0.7703501130054585,8
0.7601266877812969,-0.7939172162568332,8
0.7701283547257877,-0.7679910795624357,8
0.7801300216702785,-0.764929548342115,8
0.7901316886147691,-0.7546420615310867,8
0.8001333555592599,-0.7253499992777559,8
0.8101350225037507,-0.7187174391422467,8
0.8201366894482414,-0.6830029071501982,8
0.8301383563927321,-0.6333898971011941,8
0.8401400233372229,-0.5639109847254828,8
0.8501416902817136,-0.5302037483797494,8
0.8601433572262044,-0.4506963799572141,8
0.8701450241706952,-0.3796859519112607,8
0.8801466911151858,-0.3094849402168752,8
0.8901483580596766,-0.24496379776762683,8
0.9001500250041674,-0.18127268422271559,8
0.9101516919486582,-0.07792080701916647,8
0.9201533588931489,0.013555373854732091,8
0.9301550258376396,0.08224783630094162,8
0.9401566927821304,0.17348214015614588,8
0.9501583597266211,0.2433188333788941,8
0.9601600266711119,0.31687079355527165,8
0.9701616936156027,0.40400367611403976,8
0.9801633605600933,0.4656323619716946,8
0.9901650275045841,0.5398754213531917,8
1.0001666944490748,0.5786624335910587,8
1.0101683613935657,0.6332106282714348,8
1.0201700283380564,0.6678987409993249,8
1.030171695282547,0.7126111700852533,8
1.040173362227038,0.7447788919901124,8
1.0501750291715286,0.7652648320005655,8
1.0601766961160193,0.7716327481624108,8
1.0701783630605102,0.8007940931305388,8
1.0801800300050008,0.7727981239453895,8
1.0901816969494915,0.7635291941400968,8
1.1001833638939824,0.745791109888871,8
1.110185030838473,0.7268748965930879,8
1.1201866977829638,0.7038613384785776,8
1.1301883647274547,0.6787341290028392,8
1.1401900316719453,0.640410101908394,8
1.1501916986164362,0.5930211065745088,8
1.160193365560927,0.5493355374885266,8
1.1701950325054176,0.4950082133209337,8
1.1801966994499085,0.46837748404629653,8
1.1901983663943991,0.4142644654926113,8
1.2002000333388898,0.3768173839043631,8
1.2102017002833807,0.327977186631263,8
1.2202033672278714,0.2831434372540315,8
1.230205034172362,0.2504716644039059,8
1.240206701116853,0.1988925342161236,8
1.2502083680613436,0.18007467872681168,8
1.2602100350058343,0.14270420395468875,8
1.2702117019503252,0.11825452516310705,8
1.2802133688948159,0.07601606822851764,8
1.2902150358393065,0.06078223849279263,8
1.3002167027837974,0.032423678622289606,8
1.310218369728288,0.049101635199974916,8
1.3202200366727788,0.015195294005377905,8
1.3302217036172697,0.021783369393590553,8
1.3402233705617603,0.0008349033117854912,8
1.350225037506251,0.014621994071036405,8
1.360226704450742,-0.017806798277036857,8
1.3702283713952326,-0.004518179646001981,8
1.3802300383397232,0.0010973260048204292,8
1.3902317052842141,-0.004130019930711582,8
1.4002333722287048,0.011827654138281738,8
1.4102350391731955,0.005942333118168507,8
1.4202367061176864,0.0029160602481678507,8
1.430238373062177,-0.02098794903031903,8
1.440240040006668,-0.010771851772824819,8
1.4502417069511586,-0.03433602129952104,8
1.4602433738956493,-0.03387378031743892,8
1.4702450408401402,-0.0631751830634457,8
1.4802467077846309,-0.07439903945390765,8
1.4902483747291215,-0.11404080916196732,8
1.5002500416736124,-0.13309962836144806,8
1.510251708618103,-0.18784779420156714,8
1.5202533755625938,-0.202120100429598,8
1.5302550425070847,-0.2319775044000718,8
1.5402567094515753,-0.2960786334190448,8
1.550258376396066,-0.3331556711828078,8
1.560260043340557,-0.35899293005651034,8
1.5702617102850476,-0.41599761749170483,8
1.5802633772295382,-0.48894688541407294,8
1.5902650441740291,-0.5148081789809184,8
1.6002667111185198,-0.543641023077035,8
1.6102683780630105,-0.6013798758237101,8
1.6202700450075014,-0.639760439365574,8
1.630271711951992,-0.676013627858008,8
1.6402733788964827,-0.6872628090098823,8
1.6502750458409736,-0.7279034379060938,8
1.6602767127854643,-0.7362888208317383,8
1.670278379729955,-0.7809823940035223,8
1.6802800466744459,-0.7830079798704722,8
1.6902817136189365,-0.7902666940741232,8
1.7002833805634272,-0.7925128688208889,8
1.710285047507918,-0.7602882705582432,8
1.7202867144524088,-0.7323268241101817,8
1.7302883813968994,-0.7012017173563726,8
1.7402900483413903,-0.6688172530127169,8
1.750291715285881,-0.6116543741108199,8
1.7602933822303717,-0.5836423572285558,8
1.7702950491748626,-0.5245180244844823,8
1.7802967161193533,-0.4560315545993962,8
1.7902983830638441,-0.378448362408181,8
1.8003000500083348,-0.32540452466783587,8
1.8103017169528255,-0.24308826435023007,8
1.8203033838973164,-0.15820675721924138,8
1.830305050841807,-0.0741593923359469,8
1.8403067177862977,-0.004593444356486833,8
1.8503083847307886,0.09538406325587648,8
1.8603100516752793,0.1741634965704955,8
1.87031171861977,0.25917886463844947,8
1.8803133855642609,0.3189240945894297,8
1.8903150525087515,0.3916385855496373,8
1.9003167194532422,0.43685345696929995,8
1.910318386397733,0.5299593105593648,8
1.9203200533422238,0.5849890981439066,8
1.9303217202867144,0.642471123267163,8
1.9403233872312053,0.6697742527133278,8
1.950325054175696,0.720262307336764,8
1.9603267211201867,0.7354959730504008,8
1.9703283880646776,0.7704665166951161,8
1.9803300550091683,0.7728866881863432,8
1.990331721953659,0.7772758326216899,8
2.0003333888981496,0.7911261994578356,8
2.0103350558426407,0.7669621011227288,8
2.0203367227871314,0.7518706675405772,8
2.030338389731622,0.7437825707140975,8
2.0403400566761127,0.7061806246473264,8
2.0503417236206034,0.6851913922557404,8
2.060343390565094,0.6152753294376223,8
2.070345057509585,0.5892315397186024,8
2.080346724454076,0.5640594143968175,8
2.0903483913985665,0.4953008553543783,8
2.100350058343057,0.45023892403972976,8
2.110351725287548,0.4262274184080857,8
2.1203533922320386,0.3828031885311682,8
2.1303550591765297,0.3334212351304419,8
2.1403567261210203,0.2823216209602762,8
2.150358393065511,0.225791416459145,8
2.1603600600100017,0.19069699171020144,8
2.1703617269544924,0.17751082765817205,8
2.180363393898983,0.1312907732840829,8
2.190365060843474,0.12976934373989876,8
2.200366727787965,0.0943681401231806,8
2.2103683947324555,0.04040118285602952,8
2.220370061676946,0.05459980936808126,8
2.230371728621437,0.029520022466691654,8
2.2403733955659275,0.023199826312515357,8
2.2503750625104186,-0.00890041746920962,8
2.2603767294549093,-0.0033013371522727705,8
2.2703783963994,0.0012499871887926162,8
2.2803800633438907,0.004444759365121226,8
2.2903817302883813,-0.009072138658088038,8
2.3003833972328724,-0.0033257597863421934,8
2.310385064177363,0.012850893258385043,8
2.320386731121854,-0.014602346925034558,8
2.3303883980663445,-0.005928532627842107,8
2.340390065010835,-0.009058603202290176,8
2.350391731955326,-0.017277520251880403,8
2.360393398899817,-0.022262804387002767,8
2.3703950658443076,-0.01925151107347478,8
2.3803967327887983,-0.04566269131094733,8
2.390398399733289,-0.06315206119349709,8
2.4004000666777796,-0.0950833279070286,8
2.4104017336222703,-0.11375697871892519,8
2.4204034005667614,-0.140008815491852,8
2.430405067511252,-0.17639830671486062,8
2.4404067344557427,-0.20071010825407892,8
2.4504084014002334,-0.2484721605379649,8
2.460410068344724,-0.29271029412550426,8
2.4704117352892148,-0.3362218335730053,8
2.480413402233706,-0.3476958444043845,8
2.4904150691781965,-0.43794671297113846,8
2.5004167361226872,-0.48455366894501856,8
2.510418403067178,-0.5144049525917487,8
2.5204200700116686,-0.5350336860456509,8
2.5304217369561592,-0.582859231344067,8
2.5404234039006504,-0.6344912902148351,8
2.550425070845141,-0.6777427387658925,8
2.5604267377896317,-0.7180200608685274,8
2.5704284047341224,-0.7410094696926979,8
2.580430071678613,-0.7502876268876991,8
2.590431738623104,-0.7738420623877102,8
2.600433405567595,-0.7874756740252922,8
2.6104350725120855,-0.7720035371491136,8
2.620436739456576,-0.7809851260820606,8
2.630438406401067,-0.7631455446977173,8
2.6404400733455575,-0.744818053652544,8
2.6504417402900486,-0.7037194833840309,8
2.6604434072345393,-0.6741947996818178,8
2.67044507417903,-0.6236809306782846,8
2.6804467411235207,-0.5803812998816302,8
2.6904484080680113,-0.5144209006410013,8
2.700450075012502,-0.46346196431800246,8
2.710451741956993,-0.37473882067241526,8
2.720453408901484,-0.3158761655635272,8
2.7304550758459745,-0.23352055718446457,8
2.740456742790465,-0.15211895867557348,8
2.750458409734956,-0.06991735117607563,8
2.7604600766794465,0.014821742635325265,8
2.7704617436239376,0.08231425098332698,8
2.7804634105684283,0.17735898776520392,8
2.790465077512919,0.2472912620803087,8
2.8004667444574096,0.3064884038167895,8
2.8104684114019003,0.3840706705810558,8
2.820470078346391,0.45468893329110677,8
2.830471745290882,0.49867137015740426,8
2.8404734122353728,0.599066306139757,8
2.8504750791798634,0.6274759810224846,8
2.860476746124354,0.672832151735235,8
2.8704784130688448,0.7058406221188726,8
2.880480080013336,0.7450624539342401,8
2.8904817469578266,0.7602219476321418,8
2.9004834139023172,0.7711803703049132,8
2.910485080846808,0.7919775337960889,8
2.9204867477912986,0.7888854318016445,8
2.9304884147357892,0.7504775343663797,8
2.9404900816802804,0.7560678013181458,8
2.950491748624771,0.72210518977362,8
2.9604934155692617,0.6858704267633938,8
2.9704950825137524,0.6735289010362145,8
2.980496749458243,0.6265829097508538,8
2.9904984164027337,0.5854340146948276,8
3.000500083347225,0.5575668557207739,8
3.0105017502917155,0.5111763877167786,8
3.020503417236206,0.46835007653621685,8
3.030505084180697,0.4272056353750904,8
3.0405067511251875,0.35592391001414175,8
3.050508418069678,0.34334276715336476,8
3.0605100850141693,0.2933423372913304,8
3.07051175195866,0.2450969798715004,8
3.0805134189031507,0.20370853264486832,8
3.0905150858476413,0.16683549564706676,8
3.100516752792132,0.14472354117722533,8
3.1105184197366227,0.12392183390286789,8
3.120520086681114,0.08672227878101735,8
3.1305217536256045,0.06474607908722814,8
3.140523420570095,0.045715838255858426,8
3.150525087514586,0.01808161064546062,8
3.1605267544590765,0.018406371850668707,8
3.170528421403567,0.015081708507234014,8
3.1805300883480583,0.0012643563376863566,8
3.190531755292549,-0.0002587077016493059,8
3.2005334222370396,-0.0013495364899804864,8
3.2105350891815303,-0.007828833782559226,8
3.220536756126021,-0.001771612630609724,8
3.230538423070512,0.007521639699996816,8
3.2405400900150028,-0.0026970706178065006,8
3.2505417569594934,0.011872269495586996,8
3.260543423903984,-0.00026058819207766017,8
3.270545090848475,-0.013699535184451831,8
3.2805467577929655,-0.04042219796085392,8
3.2905484247374566,-0.055538707953168905,8
3.3005500916819472,-0.0550023516476645,8
3.310551758626438,-0.06648365587113837,8
3.3205534255709286,-0.08860053733157872,8
3.3305550925154193,-0.10365604664942787,8
3.34055675945991,-0.1490806300230775,8
3.350558426404401,-0.18047777514250052,8
3.3605600933488917,-0.21203365436125282,8
3.3705617602933824,-0.23041151718027036,8
3.380563427237873,-0.2794933809360885,8
3.3905650941823637,-0.3293992961811554,8
3.4005667611268544,-0.382628251452422,8
3.4105684280713455,-0.42153166664402386,8
3.420570095015836,-0.4704159147621504,8
3.430571761960327,-0.5166593848581454,8
3.4405734289048175,-0.5639191727161045,8
3.450575095849308,-0.6047477749445428,8
3.460576762793799,-0.6331446275736067,8
3.47057842973829,-0.6678940241758928,8
3.4805800966827807,-0.7089721458262669,8
3.4905817636272714,-0.7457889528732617,8
3.500583430571762,-0.7579728455003957,8
3.5105850975162527,-0.7591475325653201,8
3.5205867644607434,-0.7740531258735153,8
3.5305884314052345,-0.7868040031371869,8
3.540590098349725,-0.7674472662483173,8
3.550591765294216,-0.7538536879048475,8
3.5605934322387065,-0.7323163773251713,8
3.570595099183197,-0.7192843947487088,8
3.5805967661276883,-0.6677057624285611,8
3.590598433072179,-0.6147160864077513,8
3.6006001000166696,-0.5592998830605601,8
3.6106017669611603,-0.49718596953142946,8
3.620603433905651,-0.45475865190330006,8
3.6306051008501417,-0.388693337065464,8
3.6406067677946328,-0.2989796239365196,8
3.6506084347391234,-0.23625047861809756,8
3.660610101683614,-0.15362977068131986,8
3.670611768628105,-0.06823195987857283,8
3.6806134355725955,0.01039400445902712,8
3.690615102517086,0.08905431159570083,8
3.7006167694615772,0.18030443165511945,8
3.710618436406068,0.2616633538945937,8
3.7206201033505586,0.3358802176505809,8
3.7306217702950493,0.396282867102537,8
3.74062343723954,0.46484378665398124,8
3.7506251041840306,0.5237707285045341,8
3.7606267711285217,0.5924474265743919,8
3.7706284380730124,0.6364370190283563,8
3.780630105017503,0.6906004209661738,8
3.7906317719619937,0.7324650836375224,8
3.8006334389064844,0.7487119374157356,8
3.810635105850975,0.7648558420557638,8
3.820636772795466,0.7694354282944104,8
3.830638439739957,0.7829099143269357,8
3.8406401066844476,0.7780466911139742,8
3.8506417736289382,0.7872829008385651,8
3.860643440573429,0.7575688765297801,8
3.87064510751792,0.7360421550614276,8
3.8806467744624107,0.7024584876438351,8
3.8906484414069014,0.6805155688210758,8
3.900650108351392,0.6254883090335945,8
3.9106517752958827,0.6080647544898563,8
3.9206534422403734,0.5620317058344769,8
3.9306551091848645,0.5209644623590141,8
3.940656776129355,0.4809248871144413,8
3.950658443073846,0.39796957710626085,8
3.9606601100183365,0.3843753514964351,8
3.970661776962827,0.3366468601400766,8
3.980663443907318,0.27580978940871687,8
3.990665110851809,0.22626278590490098,8
4.000666777796299,0.2047728623726604,8
4.01066844474079,0.16384222357808023,8
4.020670111685281,0.14642959775952133,8
4.030671778629772,0.09760470504531633,8
4.040673445574263,0.08826556556605883,8
4.0506751125187535,0.05975385853721017,8
4.060676779463244,0.04609851001250644,8
4.070678446407735,0.04306286230730108,8
4.0806801133522255,0.03131973822356832,8
4.090681780296716,0.02171630442345012,8
4.100683447241207,0.0014868918774254393,8
4.1106851141856975,-0.00456524128191666,8
4.120686781130188,0.015534895550977632,8
4.130688448074679,-0.004430372243111338,8
4.14069011501917,0.003320367057141465,8
4.150691781963661,-0.007887416022265961,8
4.160693448908152,-0.008628708742003827,8
4.170695115852642,0.005899307206963404,8
4.180696782797133,0.003935275861113911,8
4.190698449741624,0.0027722107711234574,8
4.200700116686114,-0.012163737586472897,8
4.210701783630605,-0.018767074941609424,8
4.220703450575096,-0.06225890327539435,8
4.2307051175195864,-0.07012054527326084,8
4.240706784464077,-0.09841175793950142,8
4.250708451408569,-0.10755236655493033,8
4.260710118353059,-0.1302742411725123,8
4.27071178529755,-0.17976437967610145,8
4.280713452242041,-0.21275863964684322,8
4.290715119186531,-0.23767068373603953,8
4.300716786131022,-0.29334784085195115,8
4.310718453075513,-0.3212997805348325,8
4.320720120020003,-0.37930565349265083,8
4.330721786964494,-0.4284389783227396,8
4.340723453908985,-0.46299631659846907,8
4.350725120853475,-0.5180008826063667,8
4.360726787797966,-0.5776991246947758,8
4.370728454742458,-0.5983992018493366,8
4.380730121686948,-0.6587776961901994,8
4.390731788631439,-0.6827538870479414,8
4.40073345557593,-0.7259234081079383,8
4.41073512252042,-0.767107814465059,8
4.420736789464911,-0.7590269342223848,8
4.430738456409402,-0.7722297266834266,8
4.440740123353892,-0.7799364005153495,8
4.450741790298383,-0.773504421857181,8
4.460743457242874,-0.7679709360472657,8
4.470745124187364,-0.7611022366817957,8
4.480746791131855,-0.7421390911248474,8
4.490748458076347,-0.7084902851113979,8
4.500750125020837,-0.6475704034537814,8
4.510751791965328,-0.6178245073786984,8
4.520753458909819,-0.5884152788804007,8
4.530755125854309,-0.5076680026323561,8
4.5407567927988,-0.44476017928281203,8
4.550758459743291,-0.38899865739165795,8
4.560760126687781,-0.31462679128480797,8
4.570761793632272,-0.23598090411635014,8
4.580763460576763,-0.15797239959574558,8
4.590765127521253,-0.0897885124716144,8
4.600766794465745,-0.009387514422941027,8
4.6107684614102356,0.08707912632564335,8
4.620770128354726,0.18255483399333275,8
4.630771795299217,0.2504426144546388,8
4.640773462243708,0.31119362850456506,8
4.650775129188198,0.4047610672474432,8
4.660776796132689,0.4681297518408012,8
4.67077846307718,0.5270657985275163,8
4.68078013002167,0.5895234250476205,8
4.690781796966161,0.6221792275041372,8
4.700783463910652,0.6651887671886778,8
4.710785130855142,0.7126778699651612,8
4.720786797799634,0.7267365680058319,8
4.7307884647441245,0.7553828060257838,8
4.740790131688615,0.7723947665412294,8
4.750791798633106,0.7847318714072146,8
4.7607934655775965,0.7853523967727755,8
4.770795132522087,0.7784510341207963,8
4.780796799466578,0.7477734216833009,8
4.7907984664110685,0.719039302961797,8
4.800800133355559,0.7134895673079502,8
4.81080180030005,0.6674710317842683,8
4.820803467244541,0.6446465132015051,8
4.830805134189032,0.5975314641323494,8
4.840806801133523,0.5386387498419388,8
4.8508084680780135,0.5104862786637254,8
4.860810135022504,0.45843968682168745,8
4.870811801966995,0.4269571896272616,8
4.8808134689114855,0.3810684447046283,8
4.890815135855976,0.3291782065880576,8
4.900816802800467,0.30059768548696425,8
4.9108184697449575,0.2548348614443899,8
4.920820136689448,0.21431881043988443,8
4.930821803633939,0.17885464592631464,8
4.9408234705784295,0.13867508181580954,8
4.950825137522921,0.10031160965228099,8
4.960826804467412,0.08445194215945176,8
4.970828471411902,0.0511771476011149,8
4.980830138356393,0.030642675180336917,8
4.990831805300884,0.03643282785222947,8
5.0008334722453744,0.02687442027566233,8
5.010835139189865,0.016381235206737548,8
5.020836806134356,-0.012143397410374582,8
5.0308384730788465,0.014499848165995513,8
5.040840140023337,-0.000930580203996118,8
5.050841806967828,-0.009697584622988661,8
5.0608434739123185,0.005821181596819164,8
5.07084514085681,-0.0030940822504053746,8
5.080846807801301,0.0075674262662323265,8
5.090848474745791,-0.011024797685729745,8
5.100850141690282,-0.0006869703044407802,8
5.110851808634773,-0.018727899554726906,8
5.120853475579263,-0.022194846683739645,8
5.130855142523754,-0.03187153924783535,8
5.140856809468245,-0.06766741382955103,8
5.150858476412735,-0.044915606406513695,8
5.160860143357226,-0.09678763531151258,8
5.170861810301717,-0.11388462785866375,8
5.180863477246208,-0.12499194866068085,8
5.190865144190699,-0.18527127673182583,8
5.20086681113519,-0.20262786470326524,8
5.21086847807968,-0.2497365994976626,8
5.220870145024171,-0.2794261304970803,8
5.230871811968662,-0.33057736698563916,8
5.240873478913152,-0.3871201110891852,8
5.250875145857643,-0.4272707427541093,8
5.260876812802134,-0.47177382562587805,8
5.270878479746624,-0.5261531036848378,8
5.280880146691115,-0.5858819685195465,8
5.290881813635606,-0.5914650267755593,8
5.300883480580097,-0.6626944793314427,8
5.310885147524588,-0.6737939720647868,8
5.320886814469079,-0.721966027746544,8
5.330888481413569,-0.7289457884142593,8
5.34089014835806,-0.7617882327702178,8
5.350891815302551,-0.7707280195055655,8
5.360893482247041,-0.786004023148416,8
5.370895149191532,-0.7633768786211402,8
5.380896816136023,-0.7881045012653779,8
5.390898483080513,-0.7566772263549408,8
5.400900150025004,-0.7430901890038142,8
5.410901816969495,-0.7066330194625202,8
5.420903483913986,-0.6827082472657895,8
5.430905150858477,-0.630336087393865,8
5.440906817802968,-0.5784149609522642,8
5.450908484747458,-0.5239240324339849,8
5.460910151691949,-0.4471304788108084,8
5.47091181863644,-0.38028474835851,8
5.48091348558093,-0.31702479709830295,8
5.490915152525421,-0.22665167474125175,8
5.500916819469912,-0.1450910260679887,8
5.510918486414402,-0.07506955062785559,8
5.520920153358893,0.006911561474870125,8
5.5309218203033845,0.1030447914890534,8
5.540923487247875,0.160018133524897,8
5.550925154192366,0.2407098328100162,8
5.5609268211368565,0.3315277050905342,8
5.570928488081347,0.3991681648087391,8
5.580930155025838,0.45887447282164107,8
5.590931821970329,0.5263903762811583,8
5.600933488914819,0.5929094993671578,8
5.61093515585931,0.6355236129244505,8
5.620936822803801,0.6704052739234756,8
5.630938489748291,0.7097498958709594,8
5.640940156692782,0.7426514829385031,8
5.6509418236372735,0.7580635456230687,8
5.660943490581764,0.7641817104468429,8
5.670945157526255,0.797040308690637,8
5.6809468244707455,0.7767955642635315,8
5.690948491415236,0.77299954308773,8
5.700950158359727,0.749416952616432,8
5.7109518253042175,0.7343840264927366,8
5.720953492248708,0.6814187209003514,8
5.730955159193199,0.6639896870476996,8
5.7409568261376895,0.6356227114507881,8
5.75095849308218,0.6071415687787072,8
5.760960160026672,0.5466783117256094,8
5.7709618269711624,0.4878877351328049,8
5.780963493915653,0.4618285606202549,8
5.790965160860144,0.4237622022359352,8
5.8009668278046345,0.3733643376350794,8
5.810968494749125,0.336343990923317,8
5.820970161693616,0.27942826725049585,8
5.8309718286381065,0.22711153610885504,8
5.840973495582597,0.20424752041959915,8
5.850975162527088,0.17832521575213559,8
5.8609768294715785,0.12379238608584398,8
5.870978496416069,0.09423203606506429,8
5.880980163360561,0.08150823614116191,8
5.890981830305051,0.05245594046642944,8
5.900983497249542,0.03931832320795613,8
5.910985164194033,0.03307982234607985,8
5.920986831138523,0.03724797020403521,8
5.930988498083014,0.01681771522701054,8
5.940990165027505,0.021667034913046345,8
5.950991831971995,-0.011744096084205747,8
5.960993498916486,-0.009864640837261893,8
5.970995165860977,-0.00978549622487325,8
5.9809968328054675,0.0010053603561252014,8
5.990998499749958,-0.027554178985937424,8
6.00100016669445,-0.004738550548718724,8
6.01100183363894,0.0018285913458316334,8
6.021003500583431,-0.001945870476029071,8
6.031005167527922,-0.008624191301595615,8
6.041006834472412,-0.02665556034153363,8
6.051008501416903,-0.04913447978161428,8
6.061010168361394,-0.046169034133042415,8
6.071011835305884,-0.05660987505995388,8
6.081013502250375,-0.09946399853229518,8
6.091015169194866,-0.10205606043706905,8
6.101016836139356,-0.1330855077649877,8
6.111018503083848,-0.17144626320504636,8
6.121020170028339,-0.20720339634023063,8
6.131021836972829,-0.2509474098438827,8
6.14102350391732,-0.27074733882056806,8
6.151025170861811,-0.34257711370626676,8
6.161026837806301,-0.37258561231467247,8
6.171028504750792,-0.4442812707515999,8
6.181030171695283,-0.47849751449239497,8
6.191031838639773,-0.49078219762826236,8
6.201033505584264,-0.591256570985632,8
6.211035172528755,-0.6147464264487932,8
6.221036839473245,-0.637016154916853,8
6.231038506417737,-0.6868427274518101,8
6.241040173362228,-0.7121800446583627,8
6.251041840306718,-0.7223867368820542,8
6.261043507251209,-0.7562921581403573,8
6.2710451741957,-0.7740283200981057,8
6.28104684114019,-0.7934686902106426,8
6.291048508084681,-0.7834121146802062,8
6.301050175029172,-0.7811744760461556,8
6.311051841973662,-0.7414656571457815,8
6.321053508918153,-0.7428426524416597,8
6.331055175862644,-0.7116435765569048,8
6.341056842807134,-0.665787546463434,8
6.351058509751626,-0.6200764630159401,8
6.361060176696117,-0.5539813938642854,8
6.371061843640607,-0.5057573434352821,8
6.381063510585098,-0.4570605182645018,8
6.391065177529589,-0.3716146497490818,8
6.401066844474079,-0.30476470094696245,8
6.41106851141857,-0.23125393799512042,8
6.421070178363061,-0.1685756923520264,8
6.431071845307551,-0.0760027926807899,8
6.441073512252042,0.018398884579781963,8
6.451075179196533,0.0781378067535961,8
6.461076846141024,0.18942580685735155,8
6.471078513085515,0.2520841070051866,8
6.4810801800300055,0.3261615693668052,8
6.491081846974496,0.40650109135250373,8
6.501083513918987,0.47063162836924777,8
6.5110851808634775,0.5153315949431325,8
6.521086847807968,0.5827001843907353,8
6.531088514752459,0.6243776976163349,8
6.54109018169695,0.6686156960841898,8
6.55109184864144,0.7293625056597725,8
6.561093515585931,0.7357244935125723,8
6.571095182530422,0.75815246634553,8
6.581096849474913,0.7506015597093205,8
6.591098516419404,0.7866492375214234,8
6.6011001833638945,0.7684803732381837,8
6.611101850308385,0.7599706807987991,8
6.621103517252876,0.7502212885628791,8
6.6311051841973665,0.7405991901265694,8
6.641106851141857,0.6935142024324847,8
6.651108518086348,0.6731354527172677,8
6.6611101850308385,0.641338478734515,8
6.671111851975329,0.5735132214257971,8
6.68111351891982,0.5601877905177437,8
6.6911151858643105,0.5023283227608216,8
6.701116852808802,0.449210060561122,8
6.711118519753293,0.4076603432695442,8
6.721120186697783,0.36119789486320447,8
6.731121853642274,0.3313480811018017,8
6.741123520586765,0.2614432236030279,8
6.7511251875312555,0.2342421286496818,8
6.761126854475746,0.1848154507471526,8
6.771128521420237,0.17489557003859904,8
6.7811301883647275,0.11934739194232452,8
6.791131855309218,0.1227021302273722,8
6.801133522253709,0.07982915857533522,8
6.8111351891982,0.07021727673552972,8
6.821136856142691,0.055350290026875054,8
6.831138523087182,0.031370016318406274,8
6.841140190031672,0.012050232137557435,8
6.851141856976163,0.0004728445987433761,8
6.861143523920654,0.014142445723860076,8
6.871145190865144,-0.009459554884792023,8
6.881146857809635,0.010064861731878651,8
6.891148524754126,0.00017144624378303015,8
6.901150191698616,0.0010067239527249117,8
6.911151858643107,-0.0012893595872230663,8
6.921153525587598,-0.012663095073951575,8
6.931155192532089,-0.015088452987231795,8
6.94115685947658,-0.00539930126643049,8
6.951158526421071,-0.010735709900934105,8
6.961160193365561,-0.007444454355896024,8
6.971161860310052,-0.016425645723099836,8
6.981163527254543,-0.04974326452669342,8
6.991165194199033,-0.06825133573040411,8
7.001166861143524,-0.09032148320678196,8
7.011168528088015,-0.11617237041293224,8
7.021170195032505,-0.1540026283654009,8
7.031171861976996,-0.16958468702140117,8
7.041173528921487,-0.21129231881074095,8
7.051175195865978,-0.27250177179951995,8
7.061176862810469,-0.31061362672481624,8
7.07117852975496,-0.32701848122085725,8
7.08118019669945,-0.36779730906570185,8
7.091181863643941,-0.4400709457217964,8
7.101183530588432,-0.486923041537537,8
7.111185197532922,-0.5325128192503852,8
7.121186864477413,-0.562333251714288,8
7.131188531421904,-0.618617889011497,8
7.141190198366394,-0.6593804410479395,8
7.151191865310885,-0.6709420519854739,8
7.161193532255377,-0.7372413141039871,8
7.171195199199867,-0.7263156308644398,8
7.181196866144358,-0.7565379936917075,8
7.191198533088849,-0.7515274846960703,8
7.201200200033339,-0.7821524003264378,8
7.21120186697783,-0.7826416118338384,8
7.221203533922321,-0.7662297883962016,8
7.231205200866811,-0.7300332672548933,8
7.241206867811302,-0.7336726231802325,8
7.251208534755793,-0.6981708512195843,8
7.261210201700283,-0.6728563694290698,8
7.271211868644774,-0.6280569021277209,8
7.2812135355892655,-0.5706367431134095,8
7.291215202533756,-0.5192579530014263,8
7.301216869478247,-0.4383984955305854,8
7.311218536422738,-0.37196544322984765,8
7.321220203367228,-0.3081685782216905,8
7.331221870311719,-0.2185129251343419,8
7.34122353725621,-0.14742526426534036,8
7.3512252042007,-0.057272864044062996,8
7.361226871145191,0.016060166081906312,8
7.371228538089682,0.09750062393324242,8
7.381230205034172,0.16522650249693785,8
7.391231871978664,0.2457550761210807,8
7.4012335389231545,0.32509193063442676,8
7.411235205867645,0.4078657008153521,8
7.421236872812136,0.48241308900160784,8
7.4312385397566265,0.5314941631272088,8
7.441240206701117,0.5836104331900126,8
7.451241873645608,0.6301045503329384,8
7.4612435405900985,0.6731689833347102,8
7.471245207534589,0.7065022359859189,8
7.48124687447908,0.7688319955147291,8
7.4912485414235706,0.7601705864287496,8
7.501250208368061,0.7817022193665247,8
7.511251875312553,0.7851867344284378,8
7.5212535422570435,0.7671325012714876,8
7.531255209201534,0.7614740505110524,8
7.541256876146025,0.7318836038949946,8
7.5512585430905155,0.716901379014649,8
7.561260210035006,0.7035113561670703,8
7.571261876979497,0.6790706170834575,8
7.5812635439239875,0.6421017066280559,8
7.591265210868478,0.5968762668848187,8
7.601266877812969,0.5502681729479839,8
7.6112685447574595,0.5140602754201519,8
7.62127021170195,0.44822052229576415,8
7.631271878646442,0.4363329184934448,8
7.641273545590932,0.36352325026783705,8
7.651275212535423,0.32117387099847483,8
7.661276879479914,0.27425782944714716,8
7.671278546424404,0.2437861315774816,8
7.681280213368895,0.20248414445968033,8
7.691281880313386,0.16522756200303523,8
7.7012835472578764,0.11217173368642411,8
7.711285214202367,0.10382012500561395,8
7.721286881146858,0.07297206258994775,8
7.7312885480913485,0.03806543355901265,8
7.74129021503584,0.03372371771932493,8
7.751291881980331,0.01657523233408724,8
7.761293548924821,0.035007529267471624,8
7.771295215869312,0.017329950762114587,8
7.781296882813803,0.010590704855841813,8
7.791298549758293,-0.002864972632485833,8
7.801300216702784,0.010158674482604204,8
7.811301883647275,0.008920080080778853,8
7.821303550591765,0.018339663910804608,8
7.831305217536256,0.004232608257090139,8
7.841306884480747,0.00048352492209169807,8
7.851308551425237,-0.0034986288794080942,8
7.861310218369729,-0.003462080599387162,8
7.87131188531422,-0.020307511173852065,8
7.88131355225871,-0.023539166446085495,8
7.891315219203201,-0.03622110217120683,8
7.901316886147692,-0.035578379645490196,8
7.911318553092182,-0.0644733316142282,8
7.921320220036673,-0.08165356526006293,8
7.931321886981164,-0.1264644086527406,8
7.941323553925654,-0.14273845505174398,8
7.951325220870145,-0.18008234094578732,8
7.961326887814636,-0.2189841384936583,8
7.971328554759126,-0.2649727569934363,8
7.981330221703618,-0.3086104429431982,8
7.991331888648109,-0.3507438645396955,8
8.001333555592598,-0.3976131602749934,8
8.01133522253709,-0.4175118169684352,8
8.02133688948158,-0.46342636908684737,8
8.031338556426071,-0.5121335206756549,8
8.041340223370563,-0.5531568622749021,8
8.051341890315053,-0.6122392380906009,8
8.061343557259544,-0.6448001140725003,8
8.071345224204034,-0.6786517045118442,8
8.081346891148526,-0.7199932220419684,8
8.091348558093015,-0.7418136993610239,8
8.101350225037507,-0.7671629920364561,8
8.111351891981997,-0.752038093422137,8
8.121353558926488,-0.7910858958779831,8
8.131355225870978,-0.7705852153866282,8
8.14135689281547,-0.7744593821331937,8
8.151358559759961,-0.7595446246360081,8
8.161360226704451,-0.7472919416181475,8
8.171361893648942,-0.7024895966950622,8
8.181363560593432,-0.670221988004141,8
8.191365227537924,-0.6297320840032433,8
8.201366894482414,-0.5627677573276865,8
8.211368561426905,-0.5226838509200763,8
8.221370228371395,-0.45248528492332707,8
8.231371895315887,-0.37710479873558383,8
8.241373562260376,-0.32691521102984267,8
8.251375229204868,-0.22473139760817104,8
8.261376896149358,-0.14107972933343266,8
8.27137856309385,-0.09437383063518169,8
8.28138023003834,0.017018897648112426,8
8.29138189698283,0.09259007523738236,8
8.301383563927322,0.17961660490616377,8
8.311385230871812,0.2706031522635926,8
8.321386897816303,0.3267797743840207,8
8.331388564760793,0.4076281089198659,8
8.341390231705285,0.46283772239642784,8
8.351391898649775,0.5233046571581002,8
8.361393565594266,0.5737454214496545,8
8.371395232538756,0.6375175064989628,8
8.381396899483248,0.68724777559994,8
8.391398566427739,0.715051879753259,8
8.401400233372229,0.7392674282594797,8
8.41140190031672,0.7507768973459598,8
8.42140356726121,0.793187035977379,8
8.431405234205702,0.7831872291967857,8
8.441406901150192,0.7756847824840604,8
8.451408568094683,0.763500485191928,8
8.461410235039173,0.738182049128205,8
8.471411901983664,0.7268897700302134,8
8.481413568928154,0.700283973483057,8
8.491415235872646,0.6619548532837002,8
8.501416902817137,0.6435929021899709,8
8.511418569761627,0.5849144789787099,8
8.521420236706119,0.560908039558101,8
8.531421903650608,0.49219233677869006,8
8.5414235705951,0.4749382109609425,8
8.55142523753959,0.400760175989404,8
8.561426904484081,0.3475119057430026,8
8.571428571428571,0.3317873842502203,8
8.581430238373063,0.2921610874849219,8
8.591431905317553,0.25201844609356727,8
8.601433572262044,0.19227907901309943,8
8.611435239206534,0.14825396772013844,8
8.621436906151025,0.13902835370041824,8
8.631438573095517,0.10218319455459397,8
8.641440240040007,0.07015282312547354,8
8.651441906984498,0.048703622299054714,8
8.661443573928988,0.05023966856138746,8
8.67144524087348,0.026460232291558635,8
8.68144690781797,0.04148710726888495,8
8.691448574762461,0.016839851592943402,8
8.70145024170695,0.006384437066115266,8
8.711451908651442,-0.005453392693961569,8
8.721453575595932,-0.0009351801049641562,8
8.731455242540424,0.012851077801295978,8
8.741456909484915,0.008351091390890374,8
8.751458576429405,0.0034856842135738333,8
8.761460243373897,-0.003990477576635552,8
8.771461910318386,-0.004910082745352686,8
8.781463577262878,-0.020329489521284175,8
8.791465244207368,-0.01231600221794503,8
8.80146691115186,-0.01866929167386478,8
8.811468578096349,-0.05157868261701383,8
8.82147024504084,-0.03960321964139042,8
8.83147191198533,-0.07971326667917308,8
8.841473578929822,-0.10544151588967159,8
8.851475245874314,-0.11223547602466397,8
8.861476912818803,-0.14896369944275645,8
8.871478579763295,-0.17298050697993544,8
8.881480246707785,-0.21189274002362626,8
8.891481913652276,-0.24663606312065325,8
8.901483580596766,-0.31022345750005287,8
8.911485247541258,-0.3350992516357437,8
8.921486914485747,-0.38692635528417135,8
8.931488581430239,-0.43104396382560534,8
8.941490248374729,-0.4733845859669688,8
8.95149191531922,-0.5229614307216994,8
8.96149358226371,-0.560290662801436,8
8.971495249208202,-0.6128057022019165,8
8.981496916152693,-0.6554839622457447,8
8.991498583097183,-0.6734132118390972,8
9.001500250041675,-0.722091487268095,8
9.011501916986164,-0.7313393431504627,8
9.021503583930656,-0.7539479771907978,8
9.031505250875146,-0.7657847377623118,8
9.041506917819637,-0.7847977542513568,8
9.051508584764127,-0.7684255839388849,8
9.061510251708619,-0.7803126943127094,8
9.071511918653108,-0.7552151539723706,8
9.0815135855976,-0.7330914284821155,8
9.091515252542091,-0.7121262844741688,8
9.101516919486581,-0.6762103838000804,8
9.111518586431073,-0.6008250849164635,8
9.121520253375563,-0.5562489036669279,8
9.131521920320054,-0.5159525444932374,8
9.141523587264544,-0.44009781755999566,8
9.151525254209036,-0.3637873293200139,8
9.161526921153525,-0.2980267837054473,8
9.171528588098017,-0.24922919640173147,8
9.181530255042507,-0.14493906477815316,8
9.191531921986998,-0.060679946434089325,8
9.20153358893149,0.0278629878865752,8
9.21153525587598,0.0855610518536121,8
9.221536922820471,0.1912226320787244,8
9.231538589764961,0.2714576007892154,8
9.241540256709452,0.32532636018771177,8
9.251541923653942,0.41759502274104077,8
9.261543590598434,0.4556776712012593,8
9.271545257542924,0.5646960141090626,8
9.281546924487415,0.581870988065654,8
9.291548591431905,0.6275262131679452,8
9.301550258376396,0.6795470693665823,8
9.311551925320888,0.7281966703431562,8
9.321553592265378,0.7389916732511388,8
9.33155525920987,0.7549744054690567,8
9.34155692615436,0.7668540639189779,8
9.35155859309885,0.8024401888160911,8
9.36156026004334,0.7745779549615641,8
9.371561926987832,0.7672590325145311,8
9.381563593932322,0.7255282578430716,8
9.391565260876813,0.7216993729342739,8
9.401566927821303,0.7113138885372271,8
9.411568594765795,0.6902606838487886,8
9.421570261710285,0.6363894164188347,8
9.431571928654776,0.5842632262877155,8
9.441573595599268,0.5460639737222098,8
9.451575262543757,0.521741337322973,8
9.461576929488249,0.46983238307209985,8
9.471578596432739,0.42687654139507136,8
9.48158026337723,0.3640212270371084,8
9.49158193032172,0.33092614328093756,8
9.501583597266212,0.2793235562102785,8
9.511585264210701,0.23128463758051238,8
9.521586931155193,0.1909886387831088,8
9.531588598099683,0.1542066383163288,8
9.541590265044174,0.11505806598200538,8
9.551591931988666,0.12023785958668708,8
9.561593598933156,0.08189767186253125,8
9.571595265877647,0.04884430904641219,8
9.581596932822137,0.041148534867740665,8
9.591598599766629,0.02780556593962915,8
9.601600266711118,0.0006339300263326492,8
9.61160193365561,0.0124192899875298,8
9.6216036006001,0.008143590221643071,8
9.631605267544591,0.010344018760904319,8
9.641606934489081,0.007558550216752473,8
9.651608601433573,0.004966711648976392,8
9.661610268378064,-0.0013588564659078588,8
9.671611935322554,0.002762132985219993,8
9.681613602267046,0.0061165355322719064,8
9.691615269211535,-0.007378507280709843,8
9.701616936156027,0.002560037309754803,8
9.711618603100517,-0.00976820750420492,8
9.721620270045008,-0.02991550324881498,8
9.731621936989498,-0.03636206373421957,8
9.74162360393399,-0.04864364858393862,8
9.75162527087848,-0.07090096140907202,8
9.761626937822971,-0.10182248265174448,8
9.77162860476746,-0.11753472415291885,8
9.781630271711952,-0.14358510058337745,8
9.791631938656444,-0.16279266742648693,8
9.801633605600934,-0.22769620380976427,8
9.811635272545425,-0.25587125213562717,8
9.821636939489915,-0.29544687282249393,8
9.831638606434407,-0.34779713681741364,8
9.841640273378896,-0.39419267355579074,8
9.851641940323388,-0.4314543470780661,8
9.861643607267878,-0.48863452813332,8
9.87164527421237,-0.5264796295869404,8
9.881646941156859,-0.5772101145239578,8
9.89164860810135,-0.6058052433587293,8
9.901650275045842,-0.6509857007618319,8
9.911651941990332,-0.6843521408225246,8
9.921653608934824,-0.7002174273498275,8
9.931655275879313,-0.7272063304551837,8
9.941656942823805,-0.755815226737648,8
9.951658609768295,-0.77449608029263,8
9.961660276712786,-0.7885390703084806,8
9.971661943657276,-0.7932539030715045,8
9.981663610601768,-0.7701289446705087,8
9.991665277546257,-0.7587342872366606,8
10.001666944490749,-0.7316626239397704,8
10.01166861143524,-0.6767200080963864,8
10.02167027837973,-0.661774071713342,8
10.031671945324222,-0.6217656434655989,8
10.041673612268712,-0.5615905908344461,8
10.051675279213203,-0.48779467554930644,8
10.061676946157693,-0.4397031450068908,8
10.071678613102184,-0.3666211723731536,8
10.081680280046674,-0.3071193482126027,8
10.091681946991166,-0.21653011852605414,8
10.101683613935656,-0.1330214715215919,8
10.111685280880147,-0.06856032699193954,8
10.121686947824637,0.026671283325478766,8
10.131688614769129,0.10812588474977958,8
10.14169028171362,0.18842244409803152,8
10.15169194865811,0.2594997398447632,8
10.161693615602601,0.356542680931689,8
10.171695282547091,0.4015072302465308,8
10.181696949491583,0.48397672758936605,8
10.191698616436073,0.5253463717065098,8
10.201700283380564,0.5838703073662086,8
10.211701950325054,0.649631700839413,8
10.221703617269545,0.6707286117473301,8
10.231705284214035,0.7304541203180501,8
10.241706951158527,0.7590851010654857,8
10.251708618103018,0.7506637113142725,8
10.261710285047508,0.7824093438470073,8
10.271711951992,0.7625725972575221,8
10.28171361893649,0.7841861751149696,8
10.291715285880981,0.7583509041715721,8
10.30171695282547,0.7454896611227237,8
10.311718619769962,0.7311301459978096,8
10.321720286714452,0.695433599348964,8
10.331721953658944,0.6728084302661471,8
10.341723620603434,0.6510222674687804,8
10.351725287547925,0.6051282342024445,8
10.361726954492417,0.5410518559514272,8
10.371728621436906,0.5073773733317343,8
10.381730288381398,0.4467682632540617,8
10.391731955325888,0.41306647047144907,8
10.40173362227038,0.38065039994177086,8
10.41173528921487,0.305058655903591,8
10.42173695615936,0.25437635381547485,8
10.43173862310385,0.25074000387295825,8
10.441740290048342,0.20613758996391204,8
10.451741956992832,0.1582054464857246,8
10.461743623937323,0.12443171970621607,8
10.471745290881813,0.11044195896210691,8
10.481746957826305,0.07971303924127347,8
10.491748624770796,0.05869570893818556,8
10.501750291715286,0.044381528416811034,8
10.511751958659778,0.03480482220127217,8
10.521753625604267,0.025881197227727113,8
10.531755292548759,0.0043265351789930516,8
10.541756959493249,-0.01005203683414467,8
10.55175862643774,0.007116136813519028,8
10.56176029338223,-0.0075878458578474625,8
10.571761960326722,0.003807736996891263,8
10.581763627271211,-0.014698035488804486,8
10.591765294215703,0.010556899593318252,8
10.601766961160195,-0.001990711878740405,8
10.611768628104684,0.0024036506785324683,8
10.621770295049176,-0.013038232688705978,8
10.631771961993666,-0.02100196082224084,8
10.641773628938157,-0.03084538592584006,8
10.651775295882647,-0.037704689069188044,8
10.661776962827139,-0.0453488196537527,8
10.671778629771628,-0.06815026964738065,8
10.68178029671612,-0.09717373301778834,8
10.69178196366061,-0.11788291703335416,8
10.701783630605101,-0.1487839582239105,8
10.711785297549593,-0.19560615385151253,8
10.721786964494083,-0.22575558754210617,8
10.731788631438574,-0.2645278684687824,8
10.741790298383064,-0.29620304993912694,8
10.751791965327556,-0.3445515089420267,8
10.761793632272045,-0.3887140599909913,8
10.771795299216537,-0.4166466202692582,8
10.781796966161027,-0.4717520279031196,8
10.791798633105518,-0.5121869852166065,8
10.801800300050008,-0.5736689180832473,8
10.8118019669945,-0.6021383838735156,8
10.82180363393899,-0.6395537992258846,8
10.831805300883481,-0.6796050914672482,8
10.841806967827972,-0.7126323710540948,8
10.851808634772462,-0.7343300672542535,8
10.861810301716954,-0.7822247721011105,8
10.871811968661444,-0.7702754984428862,8
10.881813635605935,-0.7704964794230313,8
10.891815302550425,-0.7897257979812995,8
10.901816969494917,-0.76824908517611,8
10.911818636439406,-0.7632748926252112,8
10.921820303383898,-0.7224946666101137,8
10.931821970328388,-0.6879551593581144,8
10.94182363727288,-0.6700596229392389,8
10.95182530421737,-0.6040214001629896,8
10.96182697116186,-0.5591062974296954,8
10.971828638106352,-0.4944496722968761,8
10.981830305050842,-0.4241178638701238,8
10.991831971995333,-0.38274853624219535,8
11.001833638939823,-0.2949442116884699,8
11.011835305884315,-0.2274186421382041,8
11.021836972828805,-0.14887901066358153,8
11.031838639773296,-0.058036304019926585,8
11.041840306717786,0.023188881996154365,8
11.051841973662277,0.09247333799838021,8
11.061843640606769,0.16969167393014067,8
11.071845307551259,0.2608226839650716,8
11.08184697449575,0.3290148185052316,8
11.09184864144024,0.39943583180818565,8
11.101850308384732,0.47655773648565936,8
11.111851975329222,0.5270501103894921,8
11.121853642273713,0.6038112518928997,8
11.131855309218203,0.6214246430410968,8
11.141856976162694,0.6888658067709907,8
11.151858643107184,0.7111204895583708,8
11.161860310051676,0.7336064708685668,8
11.171861976996166,0.7486412606216042,8
11.181863643940657,0.777492515312399,8
11.191865310885149,0.7904769818711294,8
11.201866977829638,0.7691904325159603,8
11.21186864477413,0.7715709394618673,8
11.22187031171862,0.7580566548205608,8
11.231871978663111,0.7300467899131461,8
11.241873645607601,0.7022293819448795,8
11.251875312552093,0.6536384305243662,8
11.261876979496583,0.632059566030468,8
11.271878646441074,0.5781395010094326,8
11.281880313385564,0.5383365857870953,8
11.291881980330055,0.5140903211634297,8
11.301883647274547,0.44867871997617403,8
11.311885314219037,0.4099561542381252,8
11.321886981163528,0.3719928496665943,8
11.331888648108018,0.31118073992546236,8
11.34189031505251,0.2694082508675203,8
11.351891981997,0.23625742891901774,8
11.361893648941491,0.1974349151787199,8
11.37189531588598,0.15857578055828422,8
11.381896982830472,0.12524435771951278,8
11.391898649774962,0.09721084259408291,8
11.401900316719454,0.07856106324404898,8
11.411901983663945,0.04835054268225202,8
11.421903650608435,0.04313287404726081,8
11.431905317552927,0.015097672298515335,8
11.441906984497416,0.012993755294694155,8
11.451908651441908,-0.000518025894254464,8
11.461910318386398,0.005297910452987853,8
11.47191198533089,-0.009322388906770064,8
11.481913652275379,-0.012956576163929229,8
11.49191531921987,0.016767260270487208,8
11.50191698616436,-0.011525827418393728,8
11.511918653108852,-0.004260773189914332,8
11.521920320053344,0.016265768373688195,8
11.531921986997833,-0.004590133200133614,8
11.541923653942325,-0.02017225648235938,8
11.551925320886815,-0.016086099113209018,8
11.561926987831306,-0.02465827560941039,8
11.571928654775796,-0.02949748288805968,8
11.581930321720288,-0.04191014530076692,8
11.591931988664777,-0.06491296723620625,8
11.601933655609269,-0.09942968072702349,8
11.611935322553759,-0.11903922698418466,8
11.62193698949825,-0.13034046559310497,8
11.63193865644274,-0.18002210214801642,8
11.641940323387232,-0.2301285084591898,8
11.651941990331723,-0.26401657527703914,8
11.661943657276213,-0.3067807621563878,8
11.671945324220705,-0.3449809182993155,8
11.681946991165194,-0.3696014579585729,8
11.691948658109686,-0.4278775705382623,8
11.701950325054176,-0.471859608081279,8
11.711951991998667,-0.5419543397941,8
11.721953658943157,-0.5668548455254236,8
11.731955325887649,-0.6011179151029538,8
11.741956992832138,-0.6372320207500629,8
11.75195865977663,-0.6953988392263101,8
11.761960326721121,-0.7168261933363795,8
11.771961993665611,-0.7356775048741251,8
11.781963660610103,-0.7638520688451598,8
11.791965327554593,-0.7797754018147827,8
11.801966994499084,-0.7929840383950515,8
11.811968661443574,-0.7639257656200608,8
11.821970328388065,-0.7863955811834665,8
11.831971995332555,-0.7325183348063493,8
11.841973662277047,-0.7297863494180412,8
11.851975329221537,-0.7060359797288571,8
11.861976996166028,-0.6677944836274756,8
11.87197866311052,-0.6095533610088794,8
11.88198033005501,-0.5730967673108718,8
11.891981996999501,-0.49821683374420916,8
11.90198366394399,-0.4340946518765858,8
11.911985330888482,-0.36175377012983084,8
11.921986997832972,-0.30636110709165604,8
11.931988664777464,-0.22579879480216167,8
11.941990331721954,-0.11890776668303629,8
11.951991998666445,-0.0551106463543915,8
11.961993665610935,0.012573218299920072,8
11.971995332555426,0.12139879897880991,8
11.981996999499916,0.18740220871519025,8
11.991998666444408,0.2506125409783094,8
12.0020003333889,0.3517551357336977,8
12.01200200033339,0.40121961844368775,8
12.02200366727788,0.4933094099294443,8
12.03200533422237,0.5443040580492371,8
12.042007001166862,0.5936173317716108,8
12.052008668111352,0.6341362237496158,8
12.062010335055843,0.7000676845112609,8
12.072012002000333,0.7077273761177778,8
12.082013668944825,0.7581802131208716,8
12.092015335889315,0.7461436467689385,8
12.102017002833806,0.7716270593091971,8
12.112018669778298,0.7871232513479612,8
12.122020336722787,0.7751057543734173,8
12.132022003667279,0.7618004596924361,8
12.142023670611769,0.7564850606975406,8
12.15202533755626,0.7063496251305298,8
12.16202700450075,0.6794046799309805,8
12.172028671445242,0.6646447663916137,8
12.182030338389731,0.6235578773196847,8
12.192032005334223,0.589265639908687,8
12.202033672278713,0.5511219650439707,8
12.212035339223204,0.5121582783731491,8
12.222037006167696,0.4565545547864725,8
12.232038673112186,0.4157190143482805,8
12.242040340056677,0.3633353511615363,8
12.252042007001167,0.31508765975332276,8
12.262043673945659,0.2588280237129449,8
12.272045340890148,0.2315814788798638,8
12.28204700783464,0.2062354360440915,8
12.29204867477913,0.1541733625771957,8
12.302050341723621,0.11579313005923395,8
12.312052008668111,0.09677666888852383,8
12.322053675612603,0.06963630782164432,8
12.332055342557092,0.05685359274097477,8
12.342057009501584,0.049077937053332375,8
12.352058676446076,0.03563824670344409,8
12.362060343390565,0.0066039613286038735,8
12.372062010335057,-0.002225206064000833,8
12.382063677279547,0.016473881952969942,8
12.392065344224038,-0.015270509872332003,8
12.402067011168528,0.03167492690541629,8
12.41206867811302,-0.015384211385446442,8
12.42207034505751,0.012622185564438913,8
12.432072012002001,0.012306781565452984,8
12.44207367894649,0.008844854943068137,8
12.452075345890982,0.010879830122853196,8
12.462077012835474,-0.004012145647118908,8
12.472078679779964,-0.0025966053230740468,8
12.482080346724455,-0.012978558642915326,8
12.492082013668945,-0.04953509253362169,8
12.502083680613437,-0.044732393594628,8
12.512085347557926,-0.05842890341033013,8
12.522087014502418,-0.0986326423871834,8
12.532088681446908,-0.12287968499154231,8
12.5420903483914,-0.1548567881084145,8
12.552092015335889,-0.1829342209842017,8
12.56209368228038,-0.23212181005950702,8
12.572095349224872,-0.26393420954663904,8
12.582097016169362,-0.30878797189687474,8
12.592098683113853,-0.3403177281426792,8
12.602100350058343,-0.3846502184575986,8
12.612102017002835,-0.45776212010072126,8
12.622103683947325,-0.4801691650304669,8
12.632105350891816,-0.5273728765578827,8
12.642107017836306,-0.5670363925924821,8
12.652108684780798,-0.6120141440726193,8
12.662110351725287,-0.6363434399677805,8
12.672112018669779,-0.6762254915737562,8
12.682113685614269,-0.7212123549702687,8
12.69211535255876,-0.7452340600485832,8
12.702117019503252,-0.7604622611790814,8
12.712118686447742,-0.7714485892817191,8
12.722120353392233,-0.7736154205216997,8
12.732122020336723,-0.7799781089363426,8
12.742123687281214,-0.7745093473197976,8
12.752125354225704,-0.7438471999490925,8
12.762127021170196,-0.7366713656691527,8
12.772128688114686,-0.7115303298247165,8
12.782130355059177,-0.6609246966700018,8
12.792132022003667,-0.6035704582262387,8
12.802133688948159,-0.5561036936700096,8
12.81213535589265,-0.48654117584113293,8
12.82213702283714,-0.4472553509183413,8
12.832138689781631,-0.37667686300753533,8
12.842140356726121,-0.2935263755305382,8
12.852142023670613,-0.225918587286593,8
12.862143690615103,-0.14137735135319285,8
12.872145357559594,-0.07076608763013718,8
12.882147024504084,0.0352964965894309,8
12.892148691448575,0.1019540522290854,8
12.902150358393065,0.20708857323967217,8
12.912152025337557,0.25611765469858994,8
12.922153692282048,0.34668392579216756,8
12.932155359226538,0.3995225378103405,8
12.94215702617103,0.48894728713571817,8
12.95215869311552,0.5279440849996009,8
12.962160360060011,0.5795221253658791,8
12.9721620270045,0.649580799759756,8
12.982163693948992,0.675194134790906,8
12.992165360893482,0.716828876474464,8
13.002167027837974,0.7298612104630661,8
13.012168694782464,0.7612468047132803,8
13.022170361726955,0.7697724852810737,8
13.032172028671445,0.7929457347008035,8
13.042173695615936,0.765083684737479,8
13.052175362560428,0.7700273973432987,8
13.062177029504918,0.7380297990317478,8
13.07217869644941,0.7280491740364151,8
13.0821803633939,0.7058793152261891,8
13.09218203033839,0.6615555970310905,8
13.10218369728288,0.6535923369978515,8
13.112185364227372,0.5724558501278473,8
13.122187031171862,0.5342638067677754,8
13.132188698116353,0.5154297804114166,8
13.142190365060843,0.4402366693844287,8
13.152192032005335,0.42990679082185324,8
13.162193698949826,0.3578184327765917,8
13.172195365894316,0.3152940334480537,8
13.182197032838808,0.2951764494077223,8
13.192198699783297,0.22658416639659432,8
13.202200366727789,0.18543505047429437,8
13.212202033672279,0.1632308117097544,8
13.22220370061677,0.11579004192724508,8
13.23220536756126,0.08549807046155715,8
13.242207034505752,0.06470441902047601,8
13.252208701450241,0.06514203624083588,8
13.262210368394733,0.03749312599688273,8
13.272212035339225,0.04521688022406857,8
13.282213702283714,0.028700812061816038,8
13.292215369228206,0.0006794336291267855,8
13.302217036172696,-0.002983913955132968,8
13.312218703117187,0.006173770467822567,8
13.322220370061677,-0.008196340067621516,8
13.332222037006169,-0.007471158084156528,8
13.342223703950658,-0.002046389773427038,8
13.35222537089515,0.0008119825954220282,8
13.36222703783964,0.004368431694830907,8
13.372228704784131,0.004304805028233872,8
13.382230371728621,-0.021360794625195675,8
13.392232038673113,-0.02380931642298041,8
13.402233705617604,-0.02122943136655396,8
13.412235372562094,-0.03190739266197255,8
13.422237039506586,-0.05654184611797285,8
13.432238706451075,-0.07144216106169195,8
13.442240373395567,-0.07778888220277785,8
13.452242040340057,-0.11680281892297807,8
13.462243707284548,-0.1560772687754558,8
13.472245374229038,-0.18856911731589984,8
13.48224704117353,-0.20825586264636994,8
13.49224870811802,-0.2544019558707206,8
13.502250375062511,-0.2962277403009792,8
13.512252042007002,-0.34060830854108304,8
13.522253708951492,-0.3953080519138455,8
13.532255375895984,-0.42739821705233716,8
13.542257042840474,-0.4734878983681056,8
13.552258709784965,-0.5203807720727823,8
13.562260376729455,-0.5674216373810187,8
13.572262043673947,-0.6115336745393409,8
13.582263710618436,-0.6583675181710077,8
13.592265377562928,-0.6886903361570084,8
13.602267044507418,-0.7193917543515048,8
13.61226871145191,-0.7528479549841873,8
13.6222703783964,-0.7799560638723659,8
13.63227204534089,-0.7907124321972213,8
13.642273712285382,-0.7895944174967,8
13.652275379229872,-0.7859097068655908,8
13.662277046174363,-0.7828857408148353,8
13.672278713118853,-0.7545205711189609,8
13.682280380063345,-0.7361134248430834,8
13.692282047007835,-0.6957785782815011,8
13.702283713952326,-0.6560214378749306,8
13.712285380896816,-0.6153962721023293,8
13.722287047841307,-0.568091174670034,8
13.732288714785797,-0.48896865296067826,8
13.742290381730289,-0.4288312881444949,8
13.75229204867478,-0.3769700171645374,8
13.76229371561927,-0.2935648909496289,8
13.772295382563762,-0.22518946116398542,8
13.782297049508252,-0.1451926288578553,8
13.792298716452743,-0.035528003591806315,8
13.802300383397233,0.020488724895594647,8
13.812302050341724,0.10047566539465508,8
13.822303717286214,0.18291467351335916,8
13.832305384230706,0.2544631419734366,8
13.842307051175196,0.3429827203612694,8
13.852308718119687,0.41984416361970345,8
13.862310385064179,0.46323339512923745,8
13.872312052008668,0.5302299660864048,8
13.88231371895316,0.6066474508834346,8
13.89231538589765,0.652297965034686,8
13.902317052842141,0.6858543098926172,8
13.912318719786631,0.726789004432466,8
13.922320386731123,0.738195404793056,8
13.932322053675612,0.7663974687963334,8
13.942323720620104,0.7878375836944038,8
13.952325387564594,0.7726736299358303,8
13.962327054509085,0.7818314850330984,8
13.972328721453577,0.770332631255599,8
13.982330388398067,0.7586232037630196,8
13.992332055342558,0.7129007208699891,8
14.002333722287048,0.7141550436805647,8
14.01233538923154,0.6754086294855024,8
14.02233705617603,0.6276437167019953,8
14.032338723120521,0.6020521491872983,8
14.04234039006501,0.5548088784471147,8
14.052342057009502,0.5074310136755668,8
14.062343723953992,0.45003560739740933,8
14.072345390898484,0.4152048587041977,8
14.082347057842973,0.36533254003733606,8
14.092348724787465,0.3034061216251408,8
14.102350391731957,0.278577812224983,8
14.112352058676446,0.24238907343533422,8
14.122353725620938,0.186134645826916,8
14.132355392565428,0.17747558055417323,8
14.14235705950992,0.1346559888315719,8
14.152358726454409,0.11568000163015237,8
14.1623603933989,0.053244249593687884,8
14.17236206034339,0.059807843896918456,8
14.182363727287882,0.024573604003487293,8
14.192365394232372,0.03421433518481663,8
14.202367061176863,0.009209054968731886,8
14.212368728121355,-0.0037535938544398274,8
14.222370395065845,0.00633909379854397,8
14.232372062010336,0.011115835523880615,8
14.242373728954826,8.89274661847587e-05,8
14.252375395899318,-0.005270699138933519,8
14.262377062843807,0.009483576069830607,8
14.272378729788299,-0.010141682583872725,8
14.282380396732789,0.003261554849406912,8
14.29238206367728,-0.013655502073960435,8
14.30238373062177,-0.0026050205604857893,8
14.312385397566262,-0.016719150198235055,8
14.322387064510753,-0.02900917406801936,8
14.332388731455243,-0.017725446388369388,8
14.342390398399735,-0.05882505538780822,8
14.352392065344224,-0.061880726946806054,8
14.362393732288716,-0.09160769730425256,8
14.372395399233206,-0.12594729465413057,8
14.382397066177697,-0.14365792831870133,8
14.392398733122187,-0.1759493869405362,8
14.402400400066679,-0.2056999373347569,8
14.412402067011168,-0.2511455008000422,8
14.42240373395566,-0.29577208231074814,8
14.432405400900151,-0.3335734338403394,8
14.442407067844641,-0.3940282435992869,8
14.452408734789133,-0.4257386659961126,8
14.462410401733623,-0.47895513077516105,8
14.472412068678114,-0.5238868947010301,8
14.482413735622604,-0.5780792876896289,8
14.492415402567095,-0.6113860741875644,8
14.502417069511585,-0.6658987024188546,8
14.512418736456077,-0.6747427333418043,8
14.522420403400567,-0.7203459108859344,8
14.532422070345058,-0.7753541692814587,8
14.542423737289548,-0.7685100899268067,8
14.55242540423404,-0.7772564196489643,8
14.562427071178531,-0.7894341112931099,8
14.57242873812302,-0.7641494479792131,8
14.582430405067512,-0.7651463354255017,8
14.592432072012002,-0.7458189216251282,8
14.602433738956494,-0.7278102913485646,8
14.612435405900984,-0.7144912657220337,8
14.622437072845475,-0.6660879216539978,8
14.632438739789965,-0.5989517412244549,8
14.642440406734456,-0.555962780488775,8
14.652442073678946,-0.49457373659640536,8
14.662443740623438,-0.4176776516269747,8
14.67244540756793,-0.3665524420678539,8
14.68244707451242,-0.28247797015070963,8
14.69244874145691,-0.22491410307000584,8
14.7024504084014,-0.14435327683174143,8
14.712452075345892,-0.05305735721888495,8
14.722453742290382,0.021260555530765356,8
14.732455409234873,0.11093277843788191,8
14.742457076179363,0.18481369972616837,8
14.752458743123855,0.27695234923229156,8
14.762460410068345,0.344577776530584,8
14.772462077012836,0.428730444686431,8
14.782463743957328,0.47797960970542674,8
14.792465410901817,0.5446497462099766,8
14.802467077846309,0.5833754942900755,8
14.812468744790799,0.6394110132022354,8
14.82247041173529,0.6885682755418349,8
14.83247207867978,0.723733164043696,8
14.842473745624272,0.7413069942063444,8
14.852475412568761,0.7561671747254513,8
14.862477079513253,0.7819582349166236,8
14.872478746457743,0.7757715631855944,8
14.882480413402234,0.7695015358976666,8
14.892482080346724,0.778278113610556,8
14.902483747291216,0.7435855596820484,8
14.912485414235707,0.7361277603215555,8
14.922487081180197,0.6992766044167021,8
14.932488748124689,0.6684524774975149,8
14.942490415069178,0.6148725481278828,8
14.95249208201367,0.5920291857317345,8
14.96249374895816,0.5446126379814649,8
14.972495415902651,0.5007806279705768,8
14.982497082847141,0.45210623025760954,8
14.992498749791633,0.39925506005867994,8
15.002500416736122,0.35120111908729446,8
15.012502083680614,0.29841911949171496,8
15.022503750625106,0.2663543087159975,8
15.032505417569595,0.23700177610247672,8
15.042507084514087,0.1817115215051742,8
15.052508751458577,0.15653073278637675,8
15.062510418403068,0.12634692679956988,8
15.072512085347558,0.10393482907658633,8
15.08251375229205,0.07860299976696433,8
15.09251541923654,0.062232977256897457,8
15.102517086181031,0.0372925132109508,8
15.11251875312552,0.03617428403337859,8
15.122520420070012,0.007827716001171119,8
15.132522087014504,0.025377605061451976,8
15.142523753958994,0.01773580375756536,8
15.152525420903485,0.006560865591381752,8
15.162527087847975,0.00678958730191038,8
15.172528754792467,0.004229703075397453,8
15.182530421736956,-0.0020674393350426784,8
15.192532088681448,0.022112153194392553,8
15.202533755625938,-0.007478977782177971,8
15.21253542257043,0.006775153530397926,8
15.222537089514919,-0.016844963193032067,8
15.23253875645941,-0.035762967522399464,8
15.2425404234039,-0.02369157284272725,8
15.252542090348392,-0.032674373443563824,8
15.262543757292883,-0.042819108596197836,8
15.272545424237373,-0.07330294151931396,8
15.282547091181865,-0.08502144063756635,8
15.292548758126355,-0.10653566762041186,8
15.302550425070846,-0.13990238469837762,8
15.312552092015336,-0.17444353244572794,8
15.322553758959828,-0.22301925450107785,8
15.332555425904317,-0.25604410784055026,8
15.342557092848809,-0.305898007149141,8
15.352558759793299,-0.35329598357929093,8
15.36256042673779,-0.39067494204351405,8
15.372562093682282,-0.44255938183920895,8
15.382563760626772,-0.47858916320851685,8
15.392565427571263,-0.5207437608808161,8
15.402567094515753,-0.5629272825057295,8
15.412568761460244,-0.6260486649954529,8
15.422570428404734,-0.6474035058969616,8
15.432572095349226,-0.6880106855229755,8
15.442573762293716,-0.7011115268795818,8
15.452575429238207,-0.7411561977442042,8
15.462577096182697,-0.7736252274449071,8
15.472578763127188,-0.7834655851749823,8
15.48258043007168,-0.7615706012551161,8
15.49258209701617,-0.7794731226157873,8
15.502583763960661,-0.7470254892261453,8
15.512585430905151,-0.757441857496904,8
15.522587097849643,-0.7285332897537975,8
15.532588764794133,-0.6928891783620692,8
15.542590431738624,-0.6517271920347442,8
15.552592098683114,-0.6133215736697423,8
15.562593765627605,-0.546454187194862,8
15.572595432572095,-0.5156766367702685,8
15.582597099516587,-0.43356145844692207,8
15.592598766461077,-0.3588031756086684,8
15.602600433405568,-0.28609755522287933,8
15.61260210035006,-0.22939360829504685,8
15.62260376729455,-0.12301521267597884,8
15.632605434239041,-0.07042949494994521,8
15.64260710118353,0.04446263082418046,8
15.652608768128022,0.11742498383974018,8
15.662610435072512,0.19452636551132696,8
15.672612102017004,0.2630207343321837,8
15.682613768961494,0.3427435331637582,8
15.692615435905985,0.42526632158275723,8
15.702617102850475,0.48521485861953395,8
15.712618769794966,0.5340331637331727,8
15.722620436739458,0.5892126726742494,8
15.732622103683948,0.6341459766322974,8
15.74262377062844,0.698845728474808,8
15.752625437572929,0.6950321211954174,8
15.76262710451742,0.7598437341591865,8
15.77262877146191,0.7550717935440466,8
15.782630438406402,0.7765751462207704,8
15.792632105350892,0.7831521258201055,8
15.802633772295383,0.7601267750547119,8
15.812635439239873,0.7660696816778126,8
15.822637106184365,0.7435973512858216,8
15.832638773128856,0.7215780310401053,8
15.842640440073346,0.696690880024704,8
15.852642107017838,0.6680673051102671,8
15.862643773962327,0.6224307299772652,8
15.872645440906819,0.5873810743848966,8
15.882647107851309,0.5492079935352289,8
15.8926487747958,0.49177301281925256,8
15.90265044174029,0.4560364365444533,8
15.912652108684782,0.40509696482091656,8
15.922653775629271,0.3576845049013921,8
15.932655442573763,0.3181945533315604,8
15.942657109518253,0.27754222340011003,8
15.952658776462744,0.23360707625769145,8
15.962660443407236,0.20119995422769685,8
15.972662110351726,0.1603056464637318,8
15.982663777296217,0.12659529851659293,8
15.992665444240707,0.09949257693605879,8
16.002667111185197,0.08089698118252531,8
16.01266877812969,0.059010838496955376,8
16.02267044507418,0.04281102343022495,8
16.03267211201867,0.01199582049465474,8
16.04267377896316,0.010931481444733316,8
16.052675445907653,-0.012619511414355467,8
16.062677112852143,-0.002621840443162828,8
16.072678779796632,0.015859569519553834,8
16.082680446741126,-0.003931435437032239,8
16.092682113685616,0.005360904433046496,8
16.102683780630105,-0.006542478303479274,8
16.112685447574595,-0.0036884282674246576,8
16.12268711451909,-0.001027423967804184,8
16.132688781463578,0.005838336694227475,8
16.142690448408068,-0.02079454081230566,8
16.152692115352558,-0.01898952758320368,8
16.16269378229705,-0.03268509704009351,8
16.17269544924154,-0.02853889748496103,8
16.18269711618603,-0.08002722905688303,8
16.192698783130524,-0.06542313737527175,8
16.202700450075014,-0.0962636073664254,8
16.212702117019504,-0.12293710679276282,8
16.222703783963993,-0.16129600814986647,8
16.232705450908487,-0.1812650783265851,8
16.242707117852976,-0.22161433756998522,8
16.252708784797466,-0.2509576321533828,8
16.262710451741956,-0.3102000561780393,8
16.27271211868645,-0.3552953416700615,8
16.28271378563094,-0.3921113496976105,8
16.29271545257543,-0.41265181220470226,8
16.302717119519922,-0.4862160702542022,8
16.312718786464412,-0.5191909485351254,8
16.322720453408902,-0.5618499089612511,8
16.33272212035339,-0.6200932888300561,8
16.342723787297885,-0.6566744498893665,8
16.352725454242375,-0.6817211945386813,8
16.362727121186865,-0.7093201491423673,8
16.372728788131354,-0.7593328200790765,8
16.382730455075848,-0.7494112857914451,8
16.392732122020337,-0.7730976380664317,8
16.402733788964827,-0.7796759161534687,8
16.41273545590932,-0.7726665844308253,8
16.42273712285381,-0.7722265892806739,8
16.4327387897983,-0.7613875421234643,8
16.44274045674279,-0.7322519933108647,8
16.452742123687283,-0.6982575676917129,8
16.462743790631773,-0.6598328862685635,8
16.472745457576263,-0.6105440789321579,8
16.482747124520753,-0.5681988409314269,8
16.492748791465246,-0.49793887562333283,8
16.502750458409736,-0.44361551239222463,8
16.512752125354226,-0.3714757842720722,8
16.522753792298715,-0.3051942732050027,8
16.53275545924321,-0.2140445828328248,8
16.5427571261877,-0.14299119205891378,8
16.55275879313219,-0.052329558626212296,8
16.56276046007668,0.01718862387178552,8
16.57276212702117,0.11429275291138068,8
16.58276379396566,0.20655306525526204,8
16.59276546091015,0.2667373904637161,8
16.602767127854644,0.3408723797151322,8
16.612768794799134,0.4192734103306322,8
16.622770461743624,0.48041098398975063,8
16.632772128688114,0.54564980192308,8
16.642773795632607,0.6050256537309245,8
16.652775462577097,0.6468334935843723,8
16.662777129521587,0.6679531393150885,8
16.67277879646608,0.6985052946971425,8
16.68278046341057,0.7476213230923929,8
16.69278213035506,0.7737453222668418,8
16.70278379729955,0.7895716306669587,8
16.712785464244043,0.7884836795791095,8
16.722787131188532,0.771259606597055,8
16.732788798133022,0.7611872831631411,8
16.742790465077512,0.7513234647514884,8
16.752792132022005,0.7284411929981944,8
16.762793798966495,0.6838434865015126,8
16.772795465910985,0.673307291409922,8
16.782797132855478,0.6273672305854713,8
16.792798799799968,0.5715793811995242,8
16.802800466744458,0.544445378499326,8
16.812802133688947,0.48804868564509385,8
16.82280380063344,0.44808881710376164,8
16.83280546757793,0.41269004025960565,8
16.84280713452242,0.3667839675207528,8
16.85280880146691,0.3240341724674755,8
16.862810468411404,0.26807906796104536,8
16.872812135355893,0.21260778874522168,8
16.882813802300383,0.18451524386834725,8
16.892815469244876,0.15748519295925173,8
16.902817136189366,0.12967274330132741,8
16.912818803133856,0.10501934890275907,8
16.922820470078346,0.05350135078200343,8
16.93282213702284,0.06090200137236374,8
16.94282380396733,0.05524620789110439,8
16.95282547091182,0.023804330988986624,8
16.96282713785631,0.0033008907418667043,8
16.972828804800802,0.011123679512386374,8
16.98283047174529,0.0013660377662799992,8
16.99283213868978,0.01875961600306263,8
17.002833805634275,0.005019914158006907,8
17.012835472578764,-0.007591365376185536,8
17.022837139523254,0.0031342618116201137,8
17.032838806467744,0.018936256138625915,8
17.042840473412237,-0.01153031597482673,8
17.052842140356727,-0.00028945546010515286,8
17.062843807301217,-0.011963532408025036,8
17.072845474245707,-0.0074992175850511975,8
17.0828471411902,-0.018572148781861218,8
17.09284880813469,-0.0508163319212272,8
17.10285047507918,-0.06115336887592303,8
17.112852142023673,-0.07694432872413841,8
17.122853808968163,-0.09303354277118255,8
17.132855475912653,-0.13760949688482174,8
17.142857142857142,-0.15079669738154994,8
17.152858809801636,-0.17746260327543706,8
17.162860476746125,-0.22928656982698384,8
17.172862143690615,-0.2501094358630643,8
17.182863810635105,-0.3112209315111612,8
17.1928654775796,-0.34220107285826623,8
17.202867144524088,-0.39241780127499515,8
17.212868811468578,-0.4433444358671565,8
17.222870478413068,-0.48173160161899437,8
17.23287214535756,-0.5347709845540266,8
17.24287381230205,-0.5761993480539815,8
17.25287547924654,-0.6097555042629156,8
17.262877146191034,-0.6539953131878039,8
17.272878813135524,-0.6911162649580076,8
17.282880480080014,-0.7106457270797316,8
17.292882147024503,-0.7437369433885873,8
17.302883813968997,-0.760024423596038,8
17.312885480913486,-0.7535070092120183,8
17.322887147857976,-0.7714377343617365,8
17.332888814802466,-0.7635362530339107,8
17.34289048174696,-0.7687992605594887,8
17.35289214869145,-0.7712973873337061,8
17.36289381563594,-0.7050330225297,8
17.372895482580432,-0.6927682299481784,8
17.382897149524922,-0.6472596250290964,8
17.392898816469412,-0.6034744019270075,8
17.4029004834139,-0.5478613270452888,8
17.412902150358395,-0.49557826007169964,8
17.422903817302885,-0.42550964424997917,8
17.432905484247375,-0.33962071429421276,8
17.442907151191864,-0.2746193185574768,8
17.452908818136358,-0.2102883155390367,8
17.462910485080847,-0.13005804682264016,8
17.472912152025337,-0.05073364981039913,8
17.48291381896983,0.020943182871254677,8
17.49291548591432,0.1268548317445096,8
17.50291715285881,0.1914662616267598,8
17.5129188198033,0.25945594604104855,8
17.522920486747793,0.3244447065506564,8
17.532922153692283,0.4190642038288128,8
17.542923820636773,0.47987306157769705,8
17.552925487581263,0.5404874867168943,8
17.562927154525756,0.5817234841211424,8
17.572928821470246,0.6460232119862254,8
17.582930488414735,0.6837357527659864,8
17.59293215535923,0.7303533997713098,8
17.60293382230372,0.7396943323855263,8
17.61293548924821,0.766302723225819,8
17.622937156192698,0.7838863342568682,8
17.63293882313719,0.7898909841710186,8
17.64294049008168,0.7923883115193805,8
17.65294215702617,0.7655692294344064,8
17.66294382397066,0.7518425422077178,8
17.672945490915154,0.7193881618957554,8
17.682947157859644,0.7058791837281377,8
17.692948824804134,0.6531861072454792,8
17.702950491748627,0.6179357179839259,8
17.712952158693117,0.5898561945866984,8
17.722953825637607,0.5542145285992796,8
17.732955492582096,0.4987949615498939,8
17.74295715952659,0.45535888750534453,8
17.75295882647108,0.37916370130775867,8
17.76296049341557,0.3715782750546215,8
17.77296216036006,0.3294899135537299,8
17.782963827304552,0.2772456997733864,8
17.792965494249042,0.2257394642728305,8
17.802967161193532,0.20416938290760964,8
17.812968828138025,0.15801274939494378,8
17.822970495082515,0.11741213310513436,8
17.832972162027005,0.0973315812871878,8
17.842973828971495,0.062294808740038884,8
17.852975495915988,0.06819682375046807,8
17.862977162860478,0.03234067645867354,8
17.872978829804968,0.022321563118355637,8
17.882980496749457,0.01622987958366793,8
17.89298216369395,0.023354940384218804,8
17.90298383063844,-0.006429906031954036,8
17.91298549758293,0.023711813387088047,8
17.92298716452742,-0.015066446196172846,8
17.932988831471913,0.014936602542564318,8
17.942990498416403,0.0053791555283869575,8
17.952992165360893,0.0014538438047170838,8
17.962993832305386,-0.0019544735738371284,8
17.972995499249876,0.012933403209218531,8
17.982997166194366,-0.007124481462365511,8
17.992998833138856,-0.0028310890988841597,8
18.00300050008335,-0.023749484666454913,8
18.01300216702784,-0.05330135669012663,8
18.02300383397233,-0.03626079822609833,8
18.03300550091682,-0.06968934786898745,8
18.04300716786131,-0.08951051697982411,8
18.0530088348058,-0.1383934174680286,8
18.06301050175029,-0.15671813192408954,8
18.073012168694785,-0.19150628732691677,8
18.083013835639274,-0.24244801430852825,8
18.093015502583764,-0.29015755621576284,8
18.103017169528254,-0.29718882993481216,8
18.113018836472747,-0.35867775696746873,8
18.123020503417237,-0.40010116489940495,8
18.133022170361727,-0.4463468485658924,8
18.143023837306217,-0.4908056116138237,8
18.15302550425071,-0.5304314402520972,8
18.1630271711952,-0.579521134180954,8
18.17302883813969,-0.60251146510523,8
18.183030505084183,-0.6723693930131922,8
18.193032172028673,-0.6853062814066854,8
18.203033838973163,-0.7083631416994262,8
18.213035505917652,-0.7357479549622943,8
18.223037172862146,-0.7544568825009718,8
18.233038839806635,-0.7799844120193645,8
18.243040506751125,-0.7858489626350635,8
18.253042173695615,-0.7913240208096143,8
18.26304384064011,-0.777079965184243,8
18.273045507584598,-0.7499273294344755,8
18.283047174529088,-0.7201814624676268,8
18.29304884147358,-0.690916227947916,8
18.30305050841807,-0.6533094638978708,8
18.31305217536256,-0.6092405151224732,8
18.32305384230705,-0.5438811596975316,8
18.333055509251544,-0.47209883357215615,8
18.343057176196034,-0.42615815722657086,8
18.353058843140523,-0.37260126116638786,8
18.363060510085013,-0.2959701117095196,8
18.373062177029507,-0.2000975972824838,8
18.383063843973996,-0.13319571540477407,8
18.393065510918486,-0.04072118721151088,8
18.40306717786298,0.042433407545489375,8
18.41306884480747,0.12449263464301868,8
18.42307051175196,0.22462900679589123,8
18.43307217869645,0.29883655101385276,8
18.443073845640942,0.34054466186223353,8
18.453075512585432,0.41265287945116436,8
18.463077179529922,0.47788769896445865,8
18.47307884647441,0.5450058793578701,8
18.483080513418905,0.5780519164553417,8
18.493082180363395,0.6318810605538879,8
18.503083847307884,0.6944912441800747,8
18.513085514252378,0.7139345538119248,8
18.523087181196868,0.7450020410785964,8
18.533088848141357,0.7712395860638008,8
18.543090515085847,0.7870538294952698,8
18.55309218203034,0.7994806428759866,8
18.56309384897483,0.763581809119511,8
18.57309551591932,0.74535975208091,8
18.58309718286381,0.7512898469252298,8
18.593098849808303,0.7213338291866287,8
18.603100516752793,0.6906845807989199,8
18.613102183697283,0.6676288809122576,8
18.623103850641776,0.6230444539998429,8
18.633105517586266,0.5692525531720738,8
18.643107184530756,0.5321056839616484,8
18.653108851475245,0.5063471279318869,8
18.66311051841974,0.44669294194484827,8
18.67311218536423,0.4004269773818809,8
18.68311385230872,0.3483578634553471,8
18.693115519253208,0.31487468743434177,8
18.7031171861977,0.2823164708314323,8
18.71311885314219,0.2278944240271514,8
18.72312052008668,0.17503847172868128,8
18.73312218703117,0.1618011749622294,8
18.743123853975664,0.12274832280073754,8
18.753125520920154,0.10064332666642338,8
18.763127187864644,0.06378929681339965,8
18.773128854809137,0.037773594431204316,8
18.783130521753627,0.02677847404021396,8
18.793132188698117,0.024354174816936948,8
18.803133855642606,0.008714076541414801,8
18.8131355225871,0.006584029980085442,8
18.82313718953159,0.01104824105984672,8
18.83313885647608,-0.006405880200269732,8
18.84314052342057,0.00020136209549952285,8
18.853142190365062,-0.002051300753455909,8
18.863143857309552,-0.011006368674302651,8
18.873145524254042,0.005911355855126918,8
18.883147191198535,0.009588984181933822,8
18.893148858143025,-0.0067297150548166875,8
18.903150525087515,-0.00900486626885151,8
18.913152192032005,-0.01614791504838523,8
18.923153858976498,-0.02356379306039177,8
18.933155525920988,-0.033878288508560304,8
18.943157192865478,-0.06625971812281159,8
18.953158859809967,-0.05810150109764247,8
18.96316052675446,-0.09262027104635483,8
18.97316219369895,-0.12401892675186228,8
18.98316386064344,-0.15845170179842324,8
18.993165527587934,-0.1879021080464467,8
19.003167194532423,-0.21155442822923715,8
19.013168861476913,-0.2513668133658009,8
19.023170528421403,-0.3060250845898861,8
19.033172195365896,-0.3584006133887402,8
19.043173862310386,-0.3945906605042661,8
19.053175529254876,-0.44784606797271015,8
19.063177196199366,-0.48772510308458733,8
19.07317886314386,-0.5377336813359278,8
19.08318053008835,-0.5682253565093085,8
19.09318219703284,-0.6418039283089335,8
19.103183863977332,-0.6601122712242288,8
19.11318553092182,-0.6843583898114187,8
19.12318719786631,-0.7215340998170211,8
19.1331888648108,-0.7407782188226184,8
19.143190531755295,-0.7857936603381654,8
19.153192198699784,-0.768155176929071,8
19.163193865644274,-0.7769099887964963,8
19.173195532588764,-0.7584051910028513,8
19.183197199533257,-0.7562985937595481,8
19.193198866477747,-0.7550178299127359,8
19.203200533422237,-0.715818220073005,8
19.21320220036673,-0.692708966951939,8
19.22320386731122,-0.6589748680378199,8
19.23320553425571,-0.6019196941640954,8
19.2432072012002,-0.5693615488337306,8
19.253208868144693,-0.49398098191700185,8
19.263210535089183,-0.430683705032007,8
19.273212202033672,-0.35758765638105383,8
19.283213868978162,-0.2985825144815193,8
19.293215535922656,-0.1985560146536335,8
19.303217202867145,-0.14034591086606832,8
19.313218869811635,-0.04470124658959555,8
19.32322053675613,0.0304498461506553,8
19.33322220370062,0.12546606730242482,8
19.343223870645108,0.20476308360726342,8
19.353225537589598,0.2612153409910364,8
19.36322720453409,0.342562937176824,8
19.37322887147858,0.4261882774503723,8
19.38323053842307,0.4854718566665501,8
19.39323220536756,0.5501697422330263,8
19.403233872312054,0.6092076653842476,8
19.413235539256544,0.6583760719730172,8
19.423237206201033,0.7049356542682937,8
19.433238873145523,0.7243231393272167,8
19.443240540090017,0.7305651381403011,8
19.453242207034506,0.7565543021146248,8
19.463243873978996,0.7835996723200807,8
19.47324554092349,0.7801578132091922,8
19.48324720786798,0.7727159327397368,8
19.49324887481247,0.7444958479724091,8
19.50325054175696,0.7290929565907299,8
19.513252208701452,0.7236736629418749,8
19.523253875645942,0.7008272742633155,8
19.53325554259043,0.6678171485178475,8
19.54325720953492,0.58985782160836,8
19.553258876479415,0.5804615268402389,8
19.563260543423905,0.5593940347591753,8
19.573262210368394,0.48381674171985634,8
19.583263877312888,0.4534943206764125,8
19.593265544257378,0.4012223895495367,8
19.603267211201867,0.34218347966996254,8
19.613268878146357,0.3087415253279537,8
19.62327054509085,0.26475698354346633,8
19.63327221203534,0.23049576235792762,8
19.64327387897983,0.19157263649753603,8
19.65327554592432,0.15006387359705267,8
19.663277212868813,0.11833854211672608,8
19.673278879813303,0.09183295837927638,8
19.683280546757793,0.0785130051046974,8
19.693282213702286,0.04151585309141271,8
19.703283880646776,0.029956652638308476,8
19.713285547591266,0.022423137485513917,8
19.723287214535755,0.02020237432309046,8
19.73328888148025,0.012976077252840404,8
19.74329054842474,0.004961126685155706,8
19.75329221536923,0.013766235588212113,8
19.763293882313718,-0.002628561706175096,8
19.77329554925821,-0.01263770650343466,8
19.7832972162027,-0.007693596426756185,8
19.79329888314719,-0.003663037371383045,8
19.803300550091684,0.004875621249043487,8
19.813302217036174,0.016023966295203928,8
19.823303883980664,-0.01149518865315536,8
19.833305550925154,-0.006511342190895263,8
19.843307217869647,-0.013943647884000437,8
19.853308884814137,-0.041393641610270884,8
19.863310551758627,-0.033491518984388055,8
19.873312218703116,-0.06031067366243892,8
19.88331388564761,-0.09699382528250577,8
19.8933155525921,-0.11589028069633218,8
19.90331721953659,-0.14531652221550534,8
19.913318886481083,-0.17894943085136017,8
19.923320553425572,-0.22431740143807696,8
19.933322220370062,-0.27213423440645357,8
19.943323887314552,-0.307012403234098,8
19.953325554259045,-0.3458756649739783,8
19.963327221203535,-0.39623390651933543,8
19.973328888148025,-0.45111426897459334,8
19.983330555092515,-0.49729447268524885,8
19.993332222037008,-0.5169514185858856,8
20.003333888981498,-0.5721077705561566,8
20.013335555925988,-0.6084413630737293,8
20.02333722287048,-0.6685718995125349,8
20.03333888981497,-0.6898945428165895,8
20.04334055675946,-0.7141885790969162,8
20.05334222370395,-0.7471991533181074,8
20.063343890648444,-0.7721648139493387,8
20.073345557592933,-0.7712843987495674,8
20.083347224537423,-0.7854275445934434,8
20.093348891481913,-0.768562837428293,8
20.103350558426406,-0.7639567785897983,8
20.113352225370896,-0.7550442792374304,8
20.123353892315386,-0.7128260693187168,8
20.133355559259876,-0.6982198732705233,8
20.14335722620437,-0.6534398399509941,8
20.15335889314886,-0.6115117468135419,8
20.16336056009335,-0.53823819725863,8
20.173362227037842,-0.49839449893427246,8
20.18336389398233,-0.424690415411586,8
20.19336556092682,-0.33215144155160115,8
20.20336722787131,-0.27165603218057954,8
20.213368894815805,-0.20905538448863714,8
20.223370561760294,-0.13257296440684216,8
20.233372228704784,-0.0378092469532493,8
20.243373895649274,0.03954236157013352,8
20.253375562593767,0.11264387164007501,8
20.263377229538257,0.19749701360208463,8
20.273378896482747,0.2809390035912985,8
20.28338056342724,0.33905322807076915,8
20.29338223037173,0.4292744023938809,8
20.30338389731622,0.4946208147255849,8
20.31338556426071,0.5472998087456855,8
20.323387231205203,0.6072382720328834,8
20.333388898149693,0.6728004158982932,8
20.343390565094182,0.6831492270351529,8
20.353392232038672,0.7189229976219585,8
20.363393898983166,0.7347456025675119,8
20.373395565927655,0.7580405376107887,8
20.383397232872145,0.7758163361627043,8
20.39339889981664,0.7805060282476474,8
20.40340056676113,0.7756473488349059,8
20.413402233705618,0.7685189149411822,8
20.423403900650108,0.7393264212093215,8
20.4334055675946,0.708219957197416,8
20.44340723453909,0.6866368410415972,8
20.45340890148358,0.6626275921689259,8
20.46341056842807,0.6299581296967344,8
20.473412235372564,0.5766702430112731,8
20.483413902317054,0.5615261512164312,8
20.493415569261543,0.4915724952002324,8
20.503417236206037,0.4378205999811424,8
20.513418903150527,0.3937540999488921,8
20.523420570095016,0.358508454207151,8
20.533422237039506,0.30222648525817736,8
20.543423903984,0.26531614489597305,8
20.55342557092849,0.24304326551342303,8
20.56342723787298,0.19058927456887986,8
20.57342890481747,0.1638635042141839,8
20.583430571761962,0.13258446514106417,8
20.593432238706452,0.08754604413891273,8
20.60343390565094,0.08028903690198669,8
20.613435572595435,0.042308063063480325,8
20.623437239539925,0.05353256993945118,8
20.633438906484415,0.018182055756156758,8
20.643440573428904,0.009316950466529882,8
20.653442240373398,0.01172471957255048,8
20.663443907317887,0.009590679718266111,8
20.673445574262377,0.000717884627395667,8
20.683447241206867,0.0018048389760798264,8
20.69344890815136,-0.00666235857393527,8
20.70345057509585,-0.006134305353124747,8
20.71345224204034,-0.01214737800905729,8
20.723453908984833,-0.009629187548132988,8
20.733455575929323,-0.013954928649249385,8
20.743457242873813,-0.0014044233801841438,8
20.753458909818303,-0.03974091137513828,8
20.763460576762796,-0.011089626113346454,8
20.773462243707286,-0.03205761315298975,8
20.783463910651776,-0.06038969832560641,8
20.793465577596265,-0.06349851721663292,8
20.80346724454076,-0.11012622986283313,8
20.81346891148525,-0.12698746211230458,8
20.82347057842974,-0.14742264625557602,8
20.83347224537423,-0.18521691254593953,8
20.84347391231872,-0.21673154770968572,8
20.85347557926321,-0.26080878121215934,8
20.8634772462077,-0.30666140317594576,8
20.873478913152194,-0.35740590070764366,8
20.883480580096684,-0.3905704073802918,8
20.893482247041174,-0.45423243318357454,8
20.903483913985664,-0.4970425572032951,8
20.913485580930157,-0.5198965989513454,8
20.923487247874647,-0.5864980121731426,8
20.933488914819137,-0.6216436810574589,8
20.943490581763626,-0.6642522622383473,8
20.95349224870812,-0.6821533305047818,8
20.96349391565261,-0.7069945908716613,8
20.9734955825971,-0.7516768635398954,8
20.983497249541593,-0.77910481520425,8
20.993498916486082,-0.7694232800840489,8
21.003500583430572,-0.7756978817961142,8
21.013502250375062,-0.7813209518756454,8
21.023503917319555,-0.7832135981186034,8
21.033505584264045,-0.7512482540252656,8
21.043507251208535,-0.7266279089400195,8
21.053508918153025,-0.7070278573763508,8
21.063510585097518,-0.6468023863841258,8
21.073512252042008,-0.5960955991904615,8
21.083513918986498,-0.5623883374900817,8
21.09351558593099,-0.5131856048663718,8
21.10351725287548,-0.42188165181363974,8
21.11351891981997,-0.3602960461583062,8
21.12352058676446,-0.2831406424031826,8
21.133522253708954,-0.21475770009091985,8
21.143523920653443,-0.12994413628692394,8
21.153525587597933,-0.038370639218718236,8
21.163527254542423,0.05996343858678822,8
21.173528921486916,0.12557871394788206,8
21.183530588431406,0.207348868288248,8
21.193532255375896,0.2913643583650736,8
21.20353392232039,0.3616856398268748,8
21.21353558926488,0.43322390706936553,8
21.22353725620937,0.47680311354686117,8
21.23353892315386,0.573207086462738,8
21.243540590098352,0.6047839316953874,8
21.25354225704284,0.6307874944509866,8
21.26354392398733,0.6892469219502227,8
21.27354559093182,0.7371256956600453,8
21.283547257876315,0.7644608650492006,8
21.293548924820804,0.7618793175322051,8
21.303550591765294,0.7615216084959743,8
21.313552258709787,0.7929094656267347,8
21.323553925654277,0.7884388319343691,8
21.333555592598767,0.7615170865170028,8
21.343557259543257,0.7427239330298205,8
21.35355892648775,0.6998535377404391,8
21.36356059343224,0.6979121304798707,8
21.37356226037673,0.6653552877479453,8
21.38356392732122,0.6397223328794726,8
21.393565594265713,0.5660270250220285,8
21.403567261210203,0.5305574356369444,8
21.413568928154692,0.4938243878761737,8
21.423570595099186,0.44157700460092053,8
21.433572262043675,0.40758227964001953,8
21.443573928988165,0.3494027643023753,8
21.453575595932655,0.3161756480894117,8
21.46357726287715,0.2631871748759741,8
21.473578929821638,0.2322650807676203,8
21.483580596766128,0.18420612692912106,8
21.493582263710618,0.17973259495907878,8
21.50358393065511,0.13052384649883284,8
21.5135855975996,0.08259128274308601,8
21.52358726454409,0.07943253986236987,8
21.533588931488584,0.046848987770811756,8
21.543590598433074,0.04251780478652418,8
21.553592265377564,0.027394558032101966,8
21.563593932322053,0.016746255129572625,8
21.573595599266547,0.009521740683645563,8
21.583597266211036,0.02518756598313825,8
21.593598933155526,-0.0031901935166033365,8
21.603600600100016,-0.010230670954585916,8
21.61360226704451,0.0076802624809061346,8
21.623603933989,-0.009713125334900357,8
21.63360560093349,0.003298293833943349,8
21.64360726787798,-0.022399505817672312,8
21.653608934822472,-0.009798248182336537,8
21.663610601766962,-0.020685891434448274,8
21.67361226871145,-0.015503410970793498,8
21.683613935655945,-0.02496289710451784,8
21.693615602600435,-0.040109826397836744,8
21.703617269544925,-0.053846620995813686,8
21.713618936489414,-0.08884999890006913,8
21.723620603433908,-0.09047384072411177,8
21.733622270378397,-0.12477883787892079,8
21.743623937322887,-0.13792793157659652,8
21.753625604267377,-0.18238740910997056,8
21.76362727121187,-0.22345406048870947,8
21.77362893815636,-0.2701645801352542,8
21.78363060510085,-0.28716129009545244,8
21.793632272045343,-0.35473182208294984,8
21.803633938989833,-0.4116692946118998,8
21.813635605934323,-0.4458437386348171,8
21.823637272878813,-0.49117090157559523,8
21.833638939823306,-0.5361050235810073,8
21.843640606767796,-0.5992870944684155,8
21.853642273712286,-0.6116045948629502,8
21.863643940656775,-0.6447662660709516,8
21.87364560760127,-0.6864206814745517,8
21.88364727454576,-0.727148654649279,8
21.893648941490248,-0.7364243640530288,8
21.90365060843474,-0.7646184183295784,8
21.91365227537923,-0.7784800178469021,8
21.92365394232372,-0.7642336664410687,8
21.93365560926821,-0.7646751569327063,8
21.943657276212704,-0.7631066641890202,8
21.953658943157194,-0.7541548371908647,8
21.963660610101684,-0.7090827151751886,8
21.973662277046174,-0.6871987485060025,8
21.983663943990667,-0.6480689460597964,8
21.993665610935157,-0.6157901709800209,8
22.003667277879646,-0.5496588277281153,8
22.01366894482414,-0.4745317074657698,8
22.02367061176863,-0.41686637350954864,8
22.03367227871312,-0.3546555462030716,8
22.04367394565761,-0.29102133884317255,8
22.053675612602103,-0.19266901771539008,8
22.063677279546592,-0.1175499933150494,8
22.073678946491082,-0.022541150225394855,8
22.083680613435572,0.03504312622597561,8
22.093682280380065,0.12971773321878532,8
22.103683947324555,0.19351172472170536,8
22.113685614269045,0.28958154461971963,8
22.123687281213538,0.37448156568331425,8
22.133688948158028,0.42919879273383355,8
22.143690615102518,0.49328251108508053,8
22.153692282047007,0.5466098046915776,8
22.1636939489915,0.6132651848955427,8
22.17369561593599,0.6418770794157378,8
22.18369728288048,0.6860734375262849,8
22.19369894982497,0.7298214610520558,8
22.203700616769463,0.760586530658952,8
22.213702283713953,0.7784795657729219,8
22.223703950658443,0.7960146836109692,8
22.233705617602936,0.7654666456650393,8
22.243707284547426,0.7509190633840437,8
22.253708951491916,0.7663795992667154,8
22.263710618436406,0.7310592755070939,8
22.2737122853809,0.7445648847973121,8
22.28371395232539,0.6841124014244566,8
22.29371561926988,0.6479062976494421,8
22.30371728621437,0.6114665785686689,8
22.313718953158862,0.5657360880764751,8
22.32372062010335,0.5347727647859172,8
22.33372228704784,0.47214739615173107,8
22.34372395399233,0.42910857305783473,8
22.353725620936824,0.41235454555621076,8
22.363727287881314,0.3467894450221027,8
22.373728954825804,0.3221551323581906,8
22.383730621770297,0.25342734352370444,8
22.393732288714787,0.22625988414148854,8
22.403733955659277,0.18045479671097622,8
22.413735622603767,0.14785217076017743,8
22.42373728954826,0.1308620733085707,8
22.43373895649275,0.11146676734948556,8
22.44374062343724,0.05742691924429405,8
22.45374229038173,0.04521223235490517,8
22.463743957326223,0.0478322822375366,8
22.473745624270713,0.023443372310615638,8
22.483747291215202,0.02205088155662854,8
22.493748958159696,0.004180180069293008,8
22.503750625104185,0.015672842400696198,8
22.513752292048675,0.00552627519521966,8
22.523753958993165,0.01243705147365081,8
22.53375562593766,-0.0040155890909965965,8
22.543757292882148,-0.005212198613370463,8
22.553758959826638,-0.010964975413843567,8
22.563760626771128,0.003285173932381185,8
22.57376229371562,-0.012923775439436451,8
22.58376396066011,0.007659329110186318,8
22.5937656276046,-0.01416505255492995,8
22.603767294549094,-0.007945521478046256,8
22.613768961493584,-0.02595034350432369,8
22.623770628438074,-0.05198323774335358,8
22.633772295382563,-0.0795437095529022,8
22.643773962327057,-0.10469809472914687,8
22.653775629271546,-0.13269069479286313,8
22.663777296216036,-0.15401465488021002,8
22.673778963160526,-0.20817741768150838,8
22.68378063010502,-0.2257031700390118,8
22.69378229704951,-0.2591360361436534,8
22.703783963994,-0.3201178606730981,8
22.713785630938492,-0.35194186498514146,8
22.723787297882982,-0.40516308060081674,8
22.733788964827472,-0.4443877719952756,8
22.74379063177196,-0.4914461189237605,8
22.753792298716455,-0.5225997337597738,8
22.763793965660945,-0.5872627632510976,8
22.773795632605434,-0.6220557823591641,8
22.783797299549924,-0.6664609740441807,8
22.793798966494418,-0.6929657731178738,8
22.803800633438907,-0.7128803075618412,8
22.813802300383397,-0.7446644089361009,8
22.82380396732789,-0.7620959230545827,8
22.83380563427238,-0.7954483096784496,8
22.84380730121687,-0.774947617066633,8
22.85380896816136,-0.765649437289395,8
22.863810635105853,-0.7432379993262377,8
22.873812302050343,-0.7703030559253499,8
22.883813968994833,-0.71794930967855,8
22.893815635939323,-0.684991848926184,8
22.903817302883816,-0.6684627834585607,8
22.913818969828306,-0.594067918553761,8
22.923820636772795,-0.5618559206927676,8
22.93382230371729,-0.48713957713489087,8
22.94382397066178,-0.41931573539884776,8
22.95382563760627,-0.360794621107431,8
22.963827304550758,-0.27933181364404486,8
22.97382897149525,-0.18494718008952546,8
22.98383063843974,-0.12123030883596816,8
22.99383230538423,-0.041929150972701015,8
23.00383397232872,0.037039098047302994,8
23.013835639273214,0.1321283265084607,8
23.023837306217704,0.21311875713570155,8
23.033838973162194,0.27639395014013707,8
23.043840640106687,0.3519814587182596,8
23.053842307051177,0.4361853879983741,8
23.063843973995667,0.4947413732812822,8
23.073845640940156,0.5471276389079781,8
23.08384730788465,0.5985829245988246,8
23.09384897482914,0.6408668386933166,8
23.10385064177363,0.6927536936192421,8
23.11385230871812,0.7141471809080004,8
23.123853975662612,0.7553198524199958,8
23.133855642607102,0.7506614787301596,8
23.143857309551592,0.7873626841757754,8
23.153858976496082,0.7800562449493994,8
23.163860643440575,0.7666939404751312,8
23.173862310385065,0.7512631569576215,8
23.183863977329555,0.7438601260346445,8
23.193865644274048,0.7313797187685799,8
23.203867311218538,0.6851871276946088,8
23.213868978163028,0.6576987389826904,8
23.223870645107517,0.6219011790675896,8
23.23387231205201,0.5799765277934162,8
23.2438739789965,0.5343709865401777,8
23.25387564594099,0.493686882734714,8
23.26387731288548,0.4419786037562139,8
23.273878979829973,0.39401186430553004,8
23.283880646774463,0.35681444105429566,8
23.293882313718953,0.3133972668569031,8
23.303883980663446,0.2669401972613107,8
23.313885647607936,0.22172397573553784,8
23.323887314552426,0.19375147993153463,8
23.333888981496916,0.1552481451915338,8
23.34389064844141,0.12485305917424815,8
23.3538923153859,0.09582892381367249,8
23.36389398233039,0.08272467578469725,8
23.37389564927488,0.05993449929622141,8
23.38389731621937,0.043709566906649816,8
23.39389898316386,0.02227970312751536,8
23.40390065010835,0.011821206892965397,8
23.413902317052845,0.01977799676440601,8
23.423903983997334,0.009422056641993904,8
23.433905650941824,0.007977225689236804,8
23.443907317886314,-0.003892584191197106,8
23.453908984830807,-0.007192226606657044,8
23.463910651775297,-0.004080623968238147,8
23.473912318719787,-0.002126478187425858,8
23.483913985664277,-0.0214921272902083,8
23.49391565260877,-0.0129633275597036,8
23.50391731955326,-0.006284669199135065,8
23.51391898649775,-0.013131325625500402,8
23.523920653442243,-0.02161064780204592,8
23.533922320386733,-0.05242624038609005,8
23.543923987331222,-0.04453487018121363,8
23.553925654275712,-0.09136071314811785,8
23.563927321220206,-0.0935326255794749,8
23.573928988164695,-0.11252360550310729,8
23.583930655109185,-0.15858929586755247,8
23.593932322053675,-0.18609298808352243,8
23.60393398899817,-0.21235873807494018,8
23.613935655942658,-0.27267608431469265,8
23.623937322887148,-0.3219822958795669,8
23.63393898983164,-0.374409607382735,8
23.64394065677613,-0.38443002880412563,8
23.65394232372062,-0.43848013814731596,8
23.66394399066511,-0.49831575117126287,8
23.673945657609604,-0.5563480957736551,8
23.683947324554094,-0.5799627751137978,8
23.693948991498583,-0.6374081797867267,8
23.703950658443073,-0.6495303414637752,8
23.713952325387567,-0.6871610862553119,8
23.723953992332056,-0.7216511091133347,8
23.733955659276546,-0.7341557746290911,8
23.74395732622104,-0.7532971754934205,8
23.75395899316553,-0.7751427050751803,8
23.76396066011002,-0.8006813014640108,8
23.77396232705451,-0.7719344795042347,8
23.783963993999002,-0.7739480706792721,8
23.793965660943492,-0.7587832150623343,8
23.80396732788798,-0.7199074675424101,8
23.81396899483247,-0.6810020233322116,8
23.823970661776965,-0.6540109767778622,8
23.833972328721455,-0.5934367620095955,8
23.843973995665944,-0.5448693509242326,8
23.853975662610434,-0.5040431122343915,8
23.863977329554928,-0.4326847233387817,8
23.873978996499417,-0.35394142027931524,8
23.883980663443907,-0.27602608178213256,8
23.8939823303884,-0.18241527502898605,8
23.90398399733289,-0.11221914015966572,8
23.91398566427738,-0.05061251775333434,8
23.92398733122187,0.042978301495360915,8
23.933988998166363,0.125027235190566,8
23.943990665110853,0.21300774055670985,8
23.953992332055343,0.30151131387180796,8
23.963993998999833,0.3679182402862284,8
23.973995665944326,0.43358912578883385,8
23.983997332888816,0.504583727671437,8
23.993998999833305,0.5415524642909533,8
24.0040006667778,0.6057210724157166,8
24.01400233372229,0.657225330596659,8
24.02400400066678,0.6843414814638722,8
24.034005667611268,0.721661259013838,8
24.04400733455576,0.7302490946546805,8
24.05400900150025,0.7445286429679943,8
24.06401066844474,0.7784586719040687,8
24.07401233538923,0.7662300236867386,8
24.084014002333724,0.7886376617703469,8
24.094015669278214,0.774299809568098,8
24.104017336222704,0.7237389739547397,8
24.114019003167197,0.7135456498487718,8
24.124020670111687,0.6904895087988722,8
24.134022337056177,0.6561066381393372,8
24.144024004000666,0.6243426827277837,8
24.15402567094516,0.5759084769882765,8
24.16402733788965,0.5218821750510187,8
24.17402900483414,0.4649116360117267,8
24.18403067177863,0.42973052890884655,8
24.194032338723122,0.4217789016945894,8
24.204034005667612,0.3494932973937143,8
24.214035672612102,0.3065305469667712,8
24.224037339556595,0.2774147858970815,8
24.234039006501085,0.22141857196788686,8
24.244040673445575,0.17222249115510596,8
24.254042340390065,0.1513860365914952,8
24.264044007334558,0.10378579134797881,8
24.274045674279048,0.08647191724433062,8
24.284047341223538,0.05180630278950449,8
24.294049008168027,0.05376396967034246,8
24.30405067511252,0.03879974332705591,8
24.31405234205701,0.022664580500189855,8
24.3240540090015,0.011695172539549258,8
24.334055675945994,0.0024730228216444773,8
24.344057342890483,0.006718448824651951,8
24.354059009834973,0.0010542692815717735,8
24.364060676779463,0.010129993649194216,8
24.374062343723956,0.011736852375629162,8
24.384064010668446,0.020557381984630824,8
24.394065677612936,-0.007918687071369411,8
24.404067344557426,-0.007782713667546532,8
24.41406901150192,0.0012417768140808114,8
24.42407067844641,0.0007678411161933484,8
24.4340723453909,-0.014043906931667563,8
24.444074012335392,-0.02692324297339405,8
24.45407567927988,-0.036784660510556594,8
24.46407734622437,-0.03433753665458969,8
24.47407901316886,-0.07679157441945621,8
24.484080680113355,-0.09853480935351364,8
24.494082347057844,-0.14758332652120199,8
24.504084014002334,-0.14653219326154232,8
24.514085680946824,-0.18819534904717275,8
24.524087347891317,-0.23180179593894448,8
24.534089014835807,-0.25580445567218923,8
24.544090681780297,-0.3238473687608026,8
24.554092348724787,-0.35307259579936556,8
24.56409401566928,-0.41338769492622846,8
24.57409568261377,-0.4619271697633663,8
24.58409734955826,-0.46821664471381585,8
24.594099016502753,-0.5445024119278085,8
24.604100683447243,-0.5874038694749536,8
24.614102350391732,-0.621583259796218,8
24.624104017336222,-0.6476318245024957,8
24.634105684280716,-0.6803151257748513,8
24.644107351225205,-0.7250210104894276,8
24.654109018169695,-0.7303467084234022,8
24.664110685114185,-0.7617741840799748,8
24.67411235205868,-0.7606502570171635,8
24.684114019003168,-0.7779834485464325,8
24.694115685947658,-0.7826145166066146,8
24.70411735289215,-0.7703948817489816,8
24.71411901983664,-0.7475426003436418,8
24.72412068678113,-0.7266071574925317,8
24.73412235372562,-0.6930203385412538,8
24.744124020670114,-0.6599143591600238,8
24.754125687614604,-0.6090116645263723,8
24.764127354559093,-0.5360808816287329,8
24.774129021503583,-0.4979172208985741,8
24.784130688448077,-0.416853659401883,8
24.794132355392566,-0.3443209754530467,8
24.804134022337056,-0.27048752453244307,8
24.81413568928155,-0.19733141269641855,8
24.82413735622604,-0.10670768786476827,8
24.83413902317053,-0.037481449411372735,8
24.84414069011502,0.04942303890062873,8
24.854142357059512,0.1401946144528702,8
24.864144024004002,0.21687711575275542,8
24.87414569094849,0.2915721259728388,8
24.88414735789298,0.3569056747076559,8
24.894149024837475,0.40881773557866674,8
24.904150691781965,0.49122762372160644,8
24.914152358726454,0.5610410959097107,8
24.924154025670948,0.6045030373963498,8
24.934155692615438,0.6594618671762572,8
24.944157359559927,0.6896771768854738,8
24.954159026504417,0.7111535738144459,8
24.96416069344891,0.7470913733553742,8
24.9741623603934,0.7662182093205328,8
24.98416402733789,0.7747203279580418,8
24.99416569428238,0.7642032438035907,8
25.004167361226873,0.7675984943723445,8
25.014169028171363,0.7639738210561641,8
25.024170695115853,0.7159102385090108,8
25.034172362060346,0.7227788123701534,8
25.044174029004836,0.6884006683642533,8
25.054175695949326,0.6342013385046992,8
25.064177362893815,0.6001947293497676,8
25.07417902983831,0.563488897824943,8
25.0841806967828,0.533319034630874,8
25.09418236372729,0.4820583483674961,8
25.104184030671778,0.4511252164570788,8
25.11418569761627,0.3997322466869305,8
25.12418736456076,0.3495788953374452,8
25.13418903150525,0.3041822672777469,8
25.144190698449744,0.26890344735663163,8
25.154192365394234,0.23629365980235528,8
25.164194032338724,0.18349154473227375,8
25.174195699283214,0.15520696701691716,8
25.184197366227707,0.10184320209242761,8
25.194199033172197,0.10575384659889914,8
25.204200700116687,0.056475878215539496,8
25.214202367061176,0.06669489125444895,8
25.22420403400567,0.025289039808495443,8
25.23420570095016,0.02571612033298666,8
25.24420736789465,-0.009863960093563492,8
25.25420903483914,0.011433314327051561,8
25.264210701783632,0.007462744442171763,8
25.274212368728122,-0.013637311018075235,8
25.284214035672612,-0.0064980088401700295,8
25.294215702617105,0.005290346976520339,8
25.304217369561595,0.0056751700194453275,8
25.314219036506085,0.009169293808310278,8
25.324220703450575,0.010378964437517285,8
25.334222370395068,0.009875658008588334,8
25.344224037339558,0.007099124997395605,8
25.354225704284048,-0.014818936917983583,8
25.364227371228537,-0.04565270594913916,8
25.37422903817303,-0.05098742137730916,8
25.38423070511752,-0.05515421953745988,8
25.39423237206201,-0.07817959194050361,8
25.404234039006504,-0.1217010698001641,8
25.414235705950993,-0.14634900711928014,8
25.424237372895483,-0.16094819392241955,8
25.434239039839973,-0.19482540611597363,8
25.444240706784466,-0.23388387785338888,8
25.454242373728956,-0.28959575505911594,8
25.464244040673446,-0.3306643775696343,8
25.474245707617936,-0.35054086990883315,8
25.48424737456243,-0.38428954839269003,8
25.49424904150692,-0.4515935193141805,8
25.50425070845141,-0.49422911427200417,8
25.514252375395902,-0.5215251287572956,8
25.52425404234039,-0.5717561628556489,8
25.53425570928488,-0.6418858948417178,8
25.54425737622937,-0.6733562829569303,8
25.554259043173865,-0.7013703118750013,8
25.564260710118354,-0.7136391172085904,8
25.574262377062844,-0.7581328783655822,8
25.584264044007334,-0.7759615876125857,8
25.594265710951827,-0.7716155972996729,8
25.604267377896317,-0.7810662871528705,8
25.614269044840807,-0.7902094501156766,8
25.6242707117853,-0.7651213437516582,8
25.63427237872979,-0.7519764354959383,8
25.64427404567428,-0.7216841048796169,8
25.65427571261877,-0.683385186767744,8
25.664277379563263,-0.643883903159372,8
25.674279046507753,-0.591734006314898,8
25.684280713452242,-0.5400305006131698,8
25.694282380396732,-0.48030275507885584,8
25.704284047341226,-0.41491937189074274,8
25.714285714285715,-0.35580451458284335,8
25.724287381230205,-0.2791327572812699,8
25.7342890481747,-0.200325731736689,8
25.744290715119188,-0.1401428146383757,8
25.754292382063678,-0.01274989992399006,8
25.764294049008168,0.06221700977310135,8
25.77429571595266,0.13040956313666086,8
25.78429738289715,0.20969421332020804,8
25.79429904984164,0.2698343681919704,8
25.80430071678613,0.36404339868782365,8
25.814302383730624,0.432976966668632,8
25.824304050675114,0.491163166083908,8
25.834305717619603,0.5419065214762057,8
25.844307384564097,0.6204232091573125,8
25.854309051508586,0.6652329827556039,8
25.864310718453076,0.6967945913339962,8
25.874312385397566,0.7392244222267147,8
25.88431405234206,0.7228082949681559,8
25.89431571928655,0.7694451100284553,8
25.90431738623104,0.7677082692739986,8
25.91431905317553,0.783057341477077,8
25.924320720120022,0.7890264349542095,8
25.934322387064512,0.7467261989301484,8
25.944324054009,0.7365832110937142,8
25.954325720953495,0.7231498055811652,8
25.964327387897985,0.6944405755579204,8
25.974329054842475,0.6538509275262099,8
25.984330721786964,0.6219931489349162,8
25.994332388731458,0.5973896091473706,8
26.004334055675947,0.5292622428253276,8
26.014335722620437,0.4746779063016185,8
26.024337389564927,0.43128299062298625,8
26.03433905650942,0.39930517613872624,8
26.04434072345391,0.33543360347672874,8
26.0543423903984,0.32205750579940823,8
26.06434405734289,0.2615736937961931,8
26.074345724287383,0.21376690743665616,8
26.084347391231873,0.19175624462477303,8
26.094349058176363,0.15004315707873453,8
26.104350725120856,0.10829566192672753,8
26.114352392065346,0.09356283115595383,8
26.124354059009836,0.073481078658392,8
26.134355725954325,0.05429430459165015,8
26.14435739289882,0.0366837924764854,8
26.15435905984331,0.02191079406111856,8
26.1643607267878,0.014141906173319006,8
26.174362393732288,3.754219779338302e-05,8
26.18436406067678,-0.006190286942080169,8
26.19436572762127,0.02109924097167193,8
26.20436739456576,-0.007930942583784482,8
26.214369061510254,0.0051021034464501635,8
26.224370728454744,-0.010800942348566591,8
26.234372395399234,-0.0022930707414219793,8
26.244374062343724,0.0013404945949854938,8
26.254375729288217,-0.018354462216417546,8
26.264377396232707,-0.022393363993462874,8
26.274379063177197,-0.01950770178117339,8
26.284380730121686,-0.04416729735455689,8
26.29438239706618,-0.03941947106274767,8
26.30438406401067,-0.05501361299620719,8
26.31438573095516,-0.07105546660380338,8
26.324387397899653,-0.08489257980787132,8
26.334389064844142,-0.13595587061747172,8
26.344390731788632,-0.161846808024942,8
26.354392398733122,-0.2002978586318738,8
26.364394065677615,-0.22143753432715127,8
26.374395732622105,-0.2742462455676178,8
26.384397399566595,-0.308699772761711,8
26.394399066511085,-0.36344259844991544,8
26.404400733455578,-0.40347399499371456,8
26.414402400400068,-0.45498248549392695,8
26.424404067344557,-0.5032652595301821,8
26.43440573428905,-0.5131573636849778,8
26.44440740123354,-0.5949815508931839,8
26.45440906817803,-0.6130183012380054,8
26.46441073512252,-0.6504262115683888,8
26.474412402067014,-0.6936863311164272,8
26.484414069011503,-0.7306788190583905,8
26.494415735955993,-0.7402613386017679,8
26.504417402900483,-0.7678998240368163,8
26.514419069844976,-0.7745124899794623,8
26.524420736789466,-0.7806416472459135,8
26.534422403733956,-0.7771454416839442,8
26.54442407067845,-0.7557255459640543,8
26.55442573762294,-0.7336183136501542,8
26.56442740456743,-0.7309227198598325,8
26.57442907151192,-0.6717709194353672,8
26.584430738456412,-0.6422010299142155,8
26.5944324054009,-0.5907217101418085,8
26.60443407234539,-0.5336080159298516,8
26.61443573928988,-0.4749646525777789,8
26.624437406234374,-0.4151867688893129,8
26.634439073178864,-0.34347525783664246,8
26.644440740123354,-0.2693319882404551,8
26.654442407067847,-0.19233020860679415,8
26.664444074012337,-0.10161869513094239,8
26.674445740956827,-0.03159738901809548,8
26.684447407901317,0.06736732797634604,8
26.69444907484581,0.11967392508443389,8
26.7044507417903,0.20507652396400416,8
26.71445240873479,0.29756986444265,8
26.72445407567928,0.3634136904867907,8
26.734455742623773,0.44016936517007393,8
26.744457409568263,0.4803034473544102,8
26.754459076512752,0.5498142311247677,8
26.764460743457242,0.612859916553071,8
26.774462410401735,0.654426610383542,8
26.784464077346225,0.6978799957197559,8
26.794465744290715,0.7370143972089047,8
26.80446741123521,0.7504495676117461,8
26.814469078179698,0.7588387355687846,8
26.824470745124188,0.7828621092535274,8
26.834472412068678,0.7853718785167395,8
26.84447407901317,0.7826412188629963,8
26.85447574595766,0.7550512391567898,8
26.86447741290215,0.7373080342575282,8
26.87447907984664,0.7169038837642608,8
26.884480746791134,0.6794648389979846,8
26.894482413735624,0.6525478545859804,8
26.904484080680113,0.601674539719043,8
26.914485747624607,0.5701458216349535,8
26.924487414569096,0.5282349147262418,8
26.934489081513586,0.49676060566581837,8
26.944490748458076,0.42858487338012036,8
26.95449241540257,0.3671147924738414,8
26.96449408234706,0.359001744544289,8
26.97449574929155,0.3047994021984856,8
26.98449741623604,0.2621364332964384,8
26.994499083180532,0.23136411348242686,8
27.004500750125022,0.18621781949433736,8
27.01450241706951,0.1650374142085907,8
27.024504084014005,0.13475067329681134,8
27.034505750958495,0.09057811021107008,8
27.044507417902985,0.07450229749399179,8
27.054509084847474,0.04159879986964172,8
27.064510751791968,0.03843232013902978,8
27.074512418736457,0.027030641182684043,8
27.084514085680947,0.016549550986394063,8
27.094515752625437,-0.0002344368024741455,8
27.10451741956993,0.007795401369595933,8
27.11451908651442,-0.0037312830936008902,8
27.12452075345891,-0.01004314662099144,8
27.134522420403403,-0.018390628359029944,8
27.144524087347893,0.007959664740896663,8
27.154525754292383,0.013539263431444305,8
27.164527421236873,-0.02544765233987113,8
27.174529088181366,-0.0024100624470993577,8
27.184530755125856,-0.01139419530652804,8
27.194532422070345,-0.004399512239219354,8
27.204534089014835,-0.02761904503674279,8
27.21453575595933,-0.04427946063855501,8
27.22453742290382,-0.04932640761248073,8
27.234539089848308,-0.07664401743970518,8
27.2445407567928,-0.0992493871289875,8
27.25454242373729,-0.1239678122689831,8
27.26454409068178,-0.17026766744289262,8
27.27454575762627,-0.19048179623632625,8
27.284547424570764,-0.24350603511320465,8
27.294549091515254,-0.2755751865869635,8
27.304550758459744,-0.31436949252139723,8
27.314552425404234,-0.36890700915745667,8
27.324554092348727,-0.3998121307249913,8
27.334555759293217,-0.4421261819603496,8
27.344557426237706,-0.5018839551587453,8
27.3545590931822,-0.5302540517746824,8
27.36456076012669,-0.5917159689770868,8
27.37456242707118,-0.6399810054776263,8
27.38456409401567,-0.6635054225227971,8
27.394565760960162,-0.7021940017570044,8
27.404567427904652,-0.7215526610254704,8
27.414569094849142,-0.7439828352507679,8
27.424570761793632,-0.7658960339216051,8
27.434572428738125,-0.7721698308989107,8
27.444574095682615,-0.7767543561924604,8
27.454575762627105,-0.7850478505856682,8
27.464577429571595,-0.7798037265427965,8
27.474579096516088,-0.7460735308763395,8
27.484580763460578,-0.719109214216124,8
27.494582430405067,-0.6765146508273576,8
27.50458409734956,-0.6252705030081995,8
27.51458576429405,-0.602716712672098,8
27.52458743123854,-0.5497305126836504,8
27.53458909818303,-0.47637724430402434,8
27.544590765127523,-0.4159376416605725,8
27.554592432072013,-0.3433391239634416,8
27.564594099016503,-0.2510841606582765,8
27.574595765960993,-0.1832300657340609,8
27.584597432905486,-0.12776990557390014,8
27.594599099849976,-0.017138474064855892,8
27.604600766794466,0.07256898821882293,8
27.61460243373896,0.12253780134437288,8
27.62460410068345,0.22994350540538058,8
27.63460576762794,0.2872388624600866,8
27.64460743457243,0.35419433524331073,8
27.65460910151692,0.4511164596435019,8
27.66461076846141,0.498728070857403,8
27.6746124354059,0.5613302996664236,8
27.68461410235039,0.616726613230273,8
27.694615769294884,0.6649516500954051,8
27.704617436239374,0.6893802021397187,8
27.714619103183864,0.7397783381095636,8
27.724620770128357,0.7638059783069581,8
27.734622437072847,0.7709909006085082,8
27.744624104017337,0.7919916876925408,8
27.754625770961827,0.7707077529350254,8
27.76462743790632,0.7813302190152154,8
27.77462910485081,0.7637558432668147,8
27.7846307717953,0.7423515926779651,8
27.79463243873979,0.7238913968966013,8
27.804634105684283,0.6906777635249288,8
27.814635772628773,0.6601928546086033,8
27.824637439573262,0.6152611226286899,8
27.834639106517756,0.5855325215285506,8
27.844640773462245,0.5222021174091896,8
27.854642440406735,0.49617874459729827,8
27.864644107351225,0.42765737121397346,8
27.87464577429572,0.39803680765524824,8
27.884647441240208,0.3404353605927325,8
27.894649108184698,0.28627747940603804,8
27.904650775129188,0.261226029500933,8
27.91465244207368,0.2335588978504771,8
27.92465410901817,0.16958418097089126,8
27.93465577596266,0.15367395242963025,8
27.944657442907154,0.09765901847735632,8
27.954659109851644,0.07011735972796239,8
27.964660776796133,0.08785654381464121,8
27.974662443740623,0.07691982597324795,8
27.984664110685117,0.04211415825014983,8
27.994665777629606,0.023567194750587172,8
28.004667444574096,0.015249225667460778,8
28.014669111518586,0.004957094783171641,8
28.02467077846308,0.022148102963742488,8
28.03467244540757,0.007393778665236298,8
28.04467411235206,0.004737641330552298,8
28.054675779296552,0.008037541715101005,8
28.064677446241042,0.012950977041333403,8
28.07467911318553,-0.01306238807000956,8
28.08468078013002,0.007179266688198793,8
28.094682447074515,-0.01853589838400995,8
28.104684114019005,0.008709477663700654,8
28.114685780963494,-0.02143268886933413,8
28.124687447907984,-0.006600478689320809,8
28.134689114852478,-0.04913438638064139,8
28.144690781796967,-0.05739458564050051,8
28.154692448741457,-0.0981536714931131,8
28.164694115685947,-0.09025467043148228,8
28.17469578263044,-0.12947275738149117,8
28.18469744957493,-0.16720188641033285,8
28.19469911651942,-0.18445031494169098,8
28.204700783463913,-0.23678454231062981,8
28.214702450408403,-0.2895102222962768,8
28.224704117352893,-0.3314484639241535,8
28.234705784297383,-0.3569316537202759,8
28.244707451241876,-0.40497559489893886,8
28.254709118186366,-0.4551787999684219,8
28.264710785130855,-0.4946373350358493,8
28.274712452075345,-0.5366476053359122,8
28.28471411901984,-0.5915124234588416,8
28.29471578596433,-0.6422401056877897,8
28.304717452908818,-0.6542718815362606,8
28.31471911985331,-0.6965594794446898,8
28.3247207867978,-0.7403715250120995,8
28.33472245374229,-0.7592916339495724,8
28.34472412068678,-0.7724273887994816,8
28.354725787631274,-0.7722048973469282,8
28.364727454575764,-0.7720318965055452,8
28.374729121520254,-0.7796067124890993,8
28.384730788464744,-0.758042269460205,8
28.394732455409237,-0.7297003852226969,8
28.404734122353727,-0.720336429383113,8
28.414735789298216,-0.6854731472197915,8
28.42473745624271,-0.6509106116648844,8
28.4347391231872,-0.5996950094830144,8
28.44474079013169,-0.5757039031999216,8
28.45474245707618,-0.4743586507392726,8
28.464744124020672,-0.4175852531028551,8
28.474745790965162,-0.3465750217585425,8
28.484747457909652,-0.26351756289395184,8
28.494749124854142,-0.17697028301099388,8
28.504750791798635,-0.09870688995172763,8
28.514752458743125,-0.024168855921112096,8
28.524754125687615,0.0553170574068091,8
28.534755792632108,0.1331601449067747,8
28.544757459576598,0.21534603316366133,8
28.554759126521088,0.30081402690424747,8
28.564760793465577,0.3687826434437759,8
28.57476246041007,0.41826093226827094,8
28.58476412735456,0.4903038150280005,8
28.59476579429905,0.5684536313811548,8
28.60476746124354,0.6045163931080372,8
28.614769128188033,0.6600909589614465,8
28.624770795132523,0.6866116457207219,8
28.634772462077013,0.7282619005461329,8
28.644774129021506,0.7665441007306252,8
28.654775795965996,0.7635109834904248,8
28.664777462910486,0.780368836286395,8
28.674779129854976,0.7885622679926098,8
28.68478079679947,0.7544066989143212,8
28.69478246374396,0.749974911775795,8
28.70478413068845,0.7388450957176124,8
28.71478579763294,0.712672134527276,8
28.72478746457743,0.6814381207083521,8
28.73478913152192,0.6533093083776657,8
28.74479079846641,0.5919322517581083,8
28.754792465410905,0.5662346021641504,8
28.764794132355394,0.549354800461032,8
28.774795799299884,0.481003334245116,8
28.784797466244374,0.43481627598979444,8
28.794799133188867,0.3823525365325858,8
28.804800800133357,0.3413027939965578,8
28.814802467077847,0.31224649541036786,8
28.824804134022337,0.24900505610544407,8
28.83480580096683,0.22788517723429105,8
28.84480746791132,0.18057690900579837,8
28.85480913485581,0.1495687472570684,8
