time,ppg_signal,subject_id
0.0,-0.007629165420233813,5
0.010001666944490749,0.13386080930531857,5
0.020003333888981498,0.1988315376691297,5
0.030005000833472247,0.30564478830105324,5
0.040006667777962995,0.4103464585911623,5
0.050008334722453744,0.5129924593658288,5
0.06001000166694449,0.588140074902532,5
0.07001166861143523,0.642721994350393,5
0.08001333555592599,0.6920279382417021,5
0.09001500250041675,0.735953305024634,5
0.10001666944490749,0.7689086755219897,5
0.11001833638939823,0.7669168483571639,5
0.12002000333388899,0.7764340399259693,5
0.13002167027837974,0.7634060158911213,5
0.14002333722287047,0.7378840442070121,5
0.15002500416736123,0.6993567523456254,5
0.16002667111185198,0.6738748832276908,5
0.17002833805634274,0.624364015112042,5
0.1800300050008335,0.5482272655156253,5
0.19003167194532422,0.5148548262817497,5
0.20003333888981498,0.4476567800924206,5
0.21003500583430573,0.38087806588052775,5
0.22003667277879646,0.3399346234308487,5
0.23003833972328722,0.26929369447788987,5
0.24004000666777797,0.21027893624948332,5
0.2500416736122687,0.15613784016029675,5
0.2600433405567595,0.11906086386255271,5
0.2700450075012502,0.07289300375940869,5
0.28004667444574094,0.06576852406202136,5
0.2900483413902317,0.04699556299303101,5
0.30005000833472245,0.013513346879415694,5
0.31005167527921323,0.016951603967005742,5
0.32005334222370396,0.008789014005243533,5
0.3300550091681947,-0.011134648080694943,5
0.3400566761126855,-2.1205590740640972e-05,5
0.3500583430571762,0.002507897007793157,5
0.360060010001667,-0.011211015488071336,5
0.3700616769461577,-0.013427430815756182,5
0.38006334389064844,-0.00708221769326885,5
0.3900650108351392,-0.03257037457106843,5
0.40006667777962995,-0.04198595926544032,5
0.4100683447241207,-0.04491324454956855,5
0.42007001166861146,-0.08031993816264446,5
0.4300716786131022,-0.10062651201974947,5
0.4400733455575929,-0.1643894064673471,5
0.4500750125020837,-0.1713770860794843,5
0.46007667944657443,-0.2428598829965478,5
0.4700783463910652,-0.29236108781926023,5
0.48008001333555594,-0.3407940243229445,5
0.49008168028004667,-0.41339555662730365,5
0.5000833472245374,-0.4710503615739795,5
0.5100850141690282,-0.5373397588594019,5
0.520086681113519,-0.5899890433087295,5
0.5300883480580096,-0.6451615338581248,5
0.5400900150025004,-0.6930424170498944,5
0.5500916819469912,-0.729255048184465,5
0.5600933488914819,-0.7563737089044924,5
0.5700950158359727,-0.7840401192673159,5
0.5800966827804634,-0.783486494752339,5
0.5900983497249542,-0.7603563879425171,5
0.6001000166694449,-0.7557800306589321,5
0.6101016836139357,-0.6984222230020924,5
0.6201033505584265,-0.6682576529358789,5
0.6301050175029171,-0.6128865578612552,5
0.6401066844474079,-0.5454229134441033,5
0.6501083513918987,-0.47641321957555394,5
0.6601100183363894,-0.3776263144413651,5
0.6701116852808802,-0.26521111118081675,5
0.680113352225371,-0.15540449644684717,5
0.6901150191698616,-0.0635779287630831,5
0.7001166861143524,0.05870285878033533,5
0.7101183530588432,0.1715207878450938,5
0.720120020003334,0.278599336626311,5
0.7301216869478246,0.3648259639604858,5
0.7401233538923154,0.46980005799991276,5
0.7501250208368062,0.5438373719472616,5
0.7601266877812969,0.6158059047811413,5
0.7701283547257877,0.6685229341248778,5
0.7801300216702785,0.7337906518720528,5
0.7901316886147691,0.7596845507123354,5
0.8001333555592599,0.7751729827520996,5
0.8101350225037507,0.7741095131746525,5
0.8201366894482414,0.7740774211813999,5
0.8301383563927321,0.7493316943063384,5
0.8401400233372229,0.7161868189702836,5
0.8501416902817136,0.6976899684396553,5
0.8601433572262044,0.647411334443514,5
0.8701450241706952,0.5915259731455146,5
0.8801466911151858,0.5489698285669847,5
0.8901483580596766,0.4734930989409684,5
0.9001500250041674,0.4143193527873097,5
0.9101516919486582,0.34189994289167186,5
0.9201533588931489,0.29156904918945536,5
0.9301550258376396,0.23679452719139754,5
0.9401566927821304,0.1834714291344911,5
0.9501583597266211,0.14349317997111966,5
0.9601600266711119,0.11767721933459391,5
0.9701616936156027,0.08563284678467775,5
0.9801633605600933,0.03900485573798934,5
0.9901650275045841,0.030964633954365425,5
1.0001666944490748,0.006057419254987997,5
1.0101683613935657,0.012455102321841337,5
1.0201700283380564,-0.0060494305012331814,5
1.030171695282547,0.006272858506655443,5
1.040173362227038,-0.006125555282692064,5
1.0501750291715286,-0.014648343691221727,5
1.0601766961160193,-0.010678222090597243,5
1.0701783630605102,-0.009028854896603723,5
1.0801800300050008,-0.014224032099264218,5
1.0901816969494915,-0.02166488916330939,5
1.1001833638939824,-0.04611686742950472,5
1.110185030838473,-0.07061241033387193,5
1.1201866977829638,-0.09133115447901874,5
1.1301883647274547,-0.12474323303541099,5
1.1401900316719453,-0.18046935835850575,5
1.1501916986164362,-0.22009179292396244,5
1.160193365560927,-0.27462972647350575,5
1.1701950325054176,-0.3245276703046138,5
1.1801966994499085,-0.37056305472920203,5
1.1901983663943991,-0.43872319037292556,5
1.2002000333388898,-0.5007220701627342,5
1.2102017002833807,-0.5754788850649067,5
1.2202033672278714,-0.6267899517908347,5
1.230205034172362,-0.6775602011889411,5
1.240206701116853,-0.7182244062817756,5
1.2502083680613436,-0.7535638863555948,5
1.2602100350058343,-0.7873984328371127,5
1.2702117019503252,-0.7784840001849175,5
1.2802133688948159,-0.7554591877550003,5
1.2902150358393065,-0.769251240720696,5
1.3002167027837974,-0.7352187469990606,5
1.310218369728288,-0.696040159124819,5
1.3202200366727788,-0.6451358460463872,5
1.3302217036172697,-0.5730448495966021,5
1.3402233705617603,-0.5047037125479774,5
1.350225037506251,-0.42772042742379496,5
1.360226704450742,-0.31861421256542566,5
1.3702283713952326,-0.21604140184084591,5
1.3802300383397232,-0.11202666527498636,5
1.3902317052842141,0.006121772913398685,5
1.4002333722287048,0.11205177888340027,5
1.4102350391731955,0.2259752146136503,5
1.4202367061176864,0.31169962744813096,5
1.430238373062177,0.40991097830722434,5
1.440240040006668,0.49464804159485176,5
1.4502417069511586,0.5713166793085581,5
1.4602433738956493,0.6563989461924075,5
1.4702450408401402,0.7047193276668171,5
1.4802467077846309,0.7554860773064135,5
1.4902483747291215,0.7733810327632218,5
1.5002500416736124,0.7581237471282407,5
1.510251708618103,0.7690819472630401,5
1.5202533755625938,0.7813680333286064,5
1.5302550425070847,0.7381850716955148,5
1.5402567094515753,0.7151098192954475,5
1.550258376396066,0.6777096946067931,5
1.560260043340557,0.6204049440100333,5
1.5702617102850476,0.5504718477691763,5
1.5802633772295382,0.5116764406367916,5
1.5902650441740291,0.43524881674394567,5
1.6002667111185198,0.3726913324635681,5
1.6102683780630105,0.3213109186619526,5
1.6202700450075014,0.2844794723869891,5
1.630271711951992,0.21767359749398196,5
1.6402733788964827,0.1676313556746154,5
1.6502750458409736,0.13221520762113287,5
1.6602767127854643,0.10530057208869778,5
1.670278379729955,0.06862585694711905,5
1.6802800466744459,0.047478907168994014,5
1.6902817136189365,0.026174099171482446,5
1.7002833805634272,-0.008035851373873193,5
1.710285047507918,-0.0005997905596210719,5
1.7202867144524088,0.009755051716829536,5
1.7302883813968994,-0.005770211594666162,5
1.7402900483413903,0.029319058870618236,5
1.750291715285881,0.0024921580973841072,5
1.7602933822303717,0.007534954880375555,5
1.7702950491748626,0.007660240811214317,5
1.7802967161193533,-0.03530696518339495,5
1.7902983830638441,-0.022298134946583302,5
1.8003000500083348,-0.030483886336372154,5
1.8103017169528255,-0.0794876623898631,5
1.8203033838973164,-0.11062881695807104,5
1.830305050841807,-0.1542392010833897,5
1.8403067177862977,-0.18476372422246737,5
1.8503083847307886,-0.2449611003467347,5
1.8603100516752793,-0.3117859848254045,5
1.87031171861977,-0.3528918727563833,5
1.8803133855642609,-0.4080078009672338,5
1.8903150525087515,-0.4855026103230168,5
1.9003167194532422,-0.5353398535442804,5
1.910318386397733,-0.5961398185070265,5
1.9203200533422238,-0.6476865556006669,5
1.9303217202867144,-0.7040957585344412,5
1.9403233872312053,-0.7287956785606885,5
1.950325054175696,-0.7509629355614434,5
1.9603267211201867,-0.7868033427657578,5
1.9703283880646776,-0.779742026444473,5
1.9803300550091683,-0.7842809306086614,5
1.990331721953659,-0.7529339047022582,5
2.0003333888981496,-0.7227358240208209,5
2.0103350558426407,-0.6630768091915892,5
2.0203367227871314,-0.5999458382558965,5
2.030338389731622,-0.5275473905732874,5
2.0403400566761127,-0.46093109048430775,5
2.0503417236206034,-0.3681424628218154,5
2.060343390565094,-0.24843097759240015,5
2.070345057509585,-0.15820171233228117,5
2.080346724454076,-0.04901668411713749,5
2.0903483913985665,0.062409748168679155,5
2.100350058343057,0.17319932628714768,5
2.110351725287548,0.26801640580888575,5
2.1203533922320386,0.3730057663857596,5
2.1303550591765297,0.4494844433573419,5
2.1403567261210203,0.5516081104779184,5
2.150358393065511,0.6172144925118346,5
2.1603600600100017,0.683203502335972,5
2.1703617269544924,0.7304438905189138,5
2.180363393898983,0.7537533114836964,5
2.190365060843474,0.7680100090404947,5
2.200366727787965,0.788589423717803,5
2.2103683947324555,0.7575116984653035,5
2.220370061676946,0.7449780063041178,5
2.230371728621437,0.7302138610724934,5
2.2403733955659275,0.6774440987857762,5
2.2503750625104186,0.6379587495301088,5
2.2603767294549093,0.5927792250479575,5
2.2703783963994,0.5337259156722252,5
2.2803800633438907,0.4855311150687567,5
2.2903817302883813,0.4178208610202872,5
2.3003833972328724,0.3693709864361764,5
2.310385064177363,0.29070321036991176,5
2.320386731121854,0.2361751420059767,5
2.3303883980663445,0.17555958024114232,5
2.340390065010835,0.158708420203383,5
2.350391731955326,0.11290697854785703,5
2.360393398899817,0.07188170967195036,5
2.3703950658443076,0.04964988488782301,5
2.3803967327887983,0.02952955255110376,5
2.390398399733289,0.026816824304698766,5
2.4004000666777796,0.02145403057710409,5
2.4104017336222703,0.0152255915416229,5
2.4204034005667614,0.0061563426052905785,5
2.430405067511252,0.00731970334566865,5
2.4404067344557427,0.004313075731529859,5
2.4504084014002334,0.0014805513423099817,5
2.460410068344724,-0.0034306919748581157,5
2.4704117352892148,0.0009372217421199629,5
2.480413402233706,-0.030149378170766544,5
2.4904150691781965,-0.026488572987207817,5
2.5004167361226872,-0.056359755080723245,5
2.510418403067178,-0.09838349409163787,5
2.5204200700116686,-0.11388408355948863,5
2.5304217369561592,-0.1731799507833639,5
2.5404234039006504,-0.21639823490404667,5
2.550425070845141,-0.2869892514052641,5
2.5604267377896317,-0.32161583511403896,5
2.5704284047341224,-0.385637667743434,5
2.580430071678613,-0.469225268355899,5
2.590431738623104,-0.5236852546458657,5
2.600433405567595,-0.5744291213257172,5
2.6104350725120855,-0.6266567276215329,5
2.620436739456576,-0.670389953366665,5
2.630438406401067,-0.7376832413705553,5
2.6404400733455575,-0.7499257646524093,5
2.6504417402900486,-0.7599795711414736,5
2.6604434072345393,-0.7822983915772668,5
2.67044507417903,-0.7849603728209694,5
2.6804467411235207,-0.7681172931078237,5
2.6904484080680113,-0.7314235016968652,5
2.700450075012502,-0.7052907502012193,5
2.710451741956993,-0.6390074868804987,5
2.720453408901484,-0.571054129324871,5
2.7304550758459745,-0.5051311260807245,5
2.740456742790465,-0.3881728876172386,5
2.750458409734956,-0.3190440464660848,5
2.7604600766794465,-0.2177822776933763,5
2.7704617436239376,-0.1126505506097805,5
2.7804634105684283,0.013442408145551235,5
2.790465077512919,0.12623375995482697,5
2.8004667444574096,0.21681702862764954,5
2.8104684114019003,0.3063637626057797,5
2.820470078346391,0.41952706215734775,5
2.830471745290882,0.5016759879993236,5
2.8404734122353728,0.5522881308236596,5
2.8504750791798634,0.6690940934737302,5
2.860476746124354,0.6929928606588506,5
2.8704784130688448,0.7380123786188698,5
2.880480080013336,0.7716433629508597,5
2.8904817469578266,0.7697249599039306,5
2.9004834139023172,0.790676324195077,5
2.910485080846808,0.7624647173516782,5
2.9204867477912986,0.742885562759703,5
2.9304884147357892,0.7212126170710457,5
2.9404900816802804,0.655437449104659,5
2.950491748624771,0.6049474064993715,5
2.9604934155692617,0.535605407331099,5
2.9704950825137524,0.5085994685252702,5
2.980496749458243,0.4304746926309293,5
2.9904984164027337,0.3869064460490187,5
3.000500083347225,0.3239490572367669,5
3.0105017502917155,0.25868315025998123,5
3.020503417236206,0.20862496481063478,5
3.030505084180697,0.17827808423468472,5
3.0405067511251875,0.12251128902598049,5
3.050508418069678,0.09264752178772603,5
3.0605100850141693,0.059311283065729456,5
3.07051175195866,0.03000044129718392,5
3.0805134189031507,0.013775658692401193,5
3.0905150858476413,0.017455704844930135,5
3.100516752792132,0.02321169704103639,5
3.1105184197366227,0.0030812860653150437,5
3.120520086681114,0.0008014886219580938,5
3.1305217536256045,0.015395741349395826,5
3.140523420570095,-0.0021016673809986335,5
3.150525087514586,-0.01586842165039746,5
3.1605267544590765,-0.004186286082406824,5
3.170528421403567,-0.030030285871592455,5
3.1805300883480583,-0.027306439114811183,5
3.190531755292549,-0.04067405147881111,5
3.2005334222370396,-0.06759097861021374,5
3.2105350891815303,-0.09392614661905438,5
3.220536756126021,-0.14011257787483136,5
3.230538423070512,-0.20192426063256003,5
3.2405400900150028,-0.25963769303687806,5
3.2505417569594934,-0.30778302756956527,5
3.260543423903984,-0.3606878984291533,5
3.270545090848475,-0.4272650331055043,5
3.2805467577929655,-0.486863244976947,5
3.2905484247374566,-0.5411083107737759,5
3.3005500916819472,-0.6078099347366241,5
3.310551758626438,-0.6549917097601151,5
3.3205534255709286,-0.6896670516117297,5
3.3305550925154193,-0.7295827957805745,5
3.34055675945991,-0.7593413499627814,5
3.350558426404401,-0.7785628784719438,5
3.3605600933488917,-0.7689802418179197,5
3.3705617602933824,-0.7734759174996142,5
3.380563427237873,-0.7362230699291649,5
3.3905650941823637,-0.7123745240961762,5
3.4005667611268544,-0.6595420326019003,5
3.4105684280713455,-0.6057352928470513,5
3.420570095015836,-0.5113629793104154,5
3.430571761960327,-0.4356261058623555,5
3.4405734289048175,-0.34779565915018923,5
3.450575095849308,-0.25471680557829024,5
3.460576762793799,-0.16101758530569907,5
3.47057842973829,-0.04448492622766828,5
3.4805800966827807,0.06781995164062882,5
3.4905817636272714,0.18717413729491203,5
3.500583430571762,0.2706873473091745,5
3.5105850975162527,0.35647773921358217,5
3.5205867644607434,0.47057817636981436,5
3.5305884314052345,0.5433698851831694,5
3.540590098349725,0.6165325892713607,5
3.550591765294216,0.6758315299569764,5
3.5605934322387065,0.722546198140473,5
3.570595099183197,0.7568497971025975,5
3.5805967661276883,0.774634877756799,5
3.590598433072179,0.8025657773857208,5
3.6006001000166696,0.7652207421441944,5
3.6106017669611603,0.7409793189166007,5
3.620603433905651,0.7282042537087565,5
3.6306051008501417,0.702431033801818,5
3.6406067677946328,0.6562377193316778,5
3.6506084347391234,0.6004567519982915,5
3.660610101683614,0.5244366339333073,5
3.670611768628105,0.4734483473206797,5
3.6806134355725955,0.41477458809981943,5
3.690615102517086,0.36422445632051265,5
3.7006167694615772,0.2915732534771468,5
3.710618436406068,0.24569625156066077,5
3.7206201033505586,0.17000445229320385,5
3.7306217702950493,0.1202289089260101,5
3.74062343723954,0.10994881529370265,5
3.7506251041840306,0.07866525163131127,5
3.7606267711285217,0.05012308307170434,5
3.7706284380730124,0.042091191174375917,5
3.780630105017503,0.019692848402204723,5
3.7906317719619937,-0.003269890320318358,5
3.8006334389064844,-0.0013469168875114633,5
3.810635105850975,-0.005535440399666141,5
3.820636772795466,-0.015349660076937223,5
3.830638439739957,0.002220865524790177,5
3.8406401066844476,-0.018212989662201515,5
3.8506417736289382,-0.0034913050936608604,5
3.860643440573429,0.006642754155531713,5
3.87064510751792,-0.020435619738544072,5
3.8806467744624107,-0.04951050218054629,5
3.8906484414069014,-0.06406416628860695,5
3.900650108351392,-0.08480904232062551,5
3.9106517752958827,-0.12811667710120167,5
3.9206534422403734,-0.17498774801649586,5
3.9306551091848645,-0.24858363619542673,5
3.940656776129355,-0.2604837356601072,5
3.950658443073846,-0.33780548542558225,5
3.9606601100183365,-0.39308949902364654,5
3.970661776962827,-0.4498026041501774,5
3.980663443907318,-0.5025005190407204,5
3.990665110851809,-0.5742772663166352,5
4.000666777796299,-0.6177672826187071,5
4.01066844474079,-0.679889848001243,5
4.020670111685281,-0.724147926721571,5
4.030671778629772,-0.7345376342837048,5
4.040673445574263,-0.7656134809312396,5
4.0506751125187535,-0.7901296365646123,5
4.060676779463244,-0.7588510474572857,5
4.070678446407735,-0.777255921178875,5
4.0806801133522255,-0.7506884376421952,5
4.090681780296716,-0.6720999440008929,5
4.100683447241207,-0.6338379004065536,5
4.1106851141856975,-0.5711979392976368,5
4.120686781130188,-0.4772598755427757,5
4.130688448074679,-0.40649807855151077,5
4.14069011501917,-0.30585344890000726,5
4.150691781963661,-0.21893684568787558,5
4.160693448908152,-0.0999865843402781,5
4.170695115852642,0.027371619159655303,5
4.180696782797133,0.11978805056746696,5
4.190698449741624,0.23798276092998488,5
4.200700116686114,0.3291890381543474,5
4.210701783630605,0.4392905502287509,5
4.220703450575096,0.5139646447269354,5
4.2307051175195864,0.5706536784794911,5
4.240706784464077,0.6600884710524331,5
4.250708451408569,0.708186734253365,5
4.260710118353059,0.7420710323149428,5
4.27071178529755,0.768346253334129,5
4.280713452242041,0.776200582810734,5
4.290715119186531,0.7711764019979713,5
4.300716786131022,0.7550970493197455,5
4.310718453075513,0.7341564262216294,5
4.320720120020003,0.6843702053952799,5
4.330721786964494,0.6673488379976138,5
4.340723453908985,0.5985245804467401,5
4.350725120853475,0.5646654460654675,5
4.360726787797966,0.49072488025654226,5
4.370728454742458,0.4396117463739599,5
4.380730121686948,0.37310014260018437,5
4.390731788631439,0.3213806821936319,5
4.40073345557593,0.23953951147806116,5
4.41073512252042,0.19275358346179727,5
4.420736789464911,0.15227540406040466,5
4.430738456409402,0.12277364804539921,5
4.440740123353892,0.09323323010640333,5
4.450741790298383,0.04903365224637407,5
4.460743457242874,0.049031438149451524,5
4.470745124187364,0.03508588680435875,5
4.480746791131855,0.0011891267661247127,5
4.490748458076347,0.0050173827266205276,5
4.500750125020837,0.00013416605056142626,5
4.510751791965328,0.007914459822205682,5
4.520753458909819,-0.0039233776380172706,5
4.530755125854309,-0.007729173275132559,5
4.5407567927988,-0.019042013781888755,5
4.550758459743291,-0.004512630874523471,5
4.560760126687781,-0.01319259994603527,5
4.570761793632272,-0.03521030865570785,5
4.580763460576763,-0.06476636671962428,5
4.590765127521253,-0.0886750594249926,5
4.600766794465745,-0.11572920347044544,5
4.6107684614102356,-0.13211730822018394,5
4.620770128354726,-0.18936397126703997,5
4.630771795299217,-0.25396431864467867,5
4.640773462243708,-0.2988768178750405,5
4.650775129188198,-0.37304611464929166,5
4.660776796132689,-0.42442385611820005,5
4.67077846307718,-0.46473530559612086,5
4.68078013002167,-0.5488461641831313,5
4.690781796966161,-0.5967850412528801,5
4.700783463910652,-0.6529563209659447,5
4.710785130855142,-0.6991092699367878,5
4.720786797799634,-0.7509790352724331,5
4.7307884647441245,-0.7722374207140247,5
4.740790131688615,-0.7779338720247048,5
4.750791798633106,-0.773184201047898,5
4.7607934655775965,-0.7734448739097974,5
4.770795132522087,-0.7447035677302323,5
4.780796799466578,-0.7166367917927398,5
4.7907984664110685,-0.660400398520105,5
4.800800133355559,-0.5933304710179275,5
4.81080180030005,-0.5225207120265486,5
4.820803467244541,-0.4444150160557498,5
4.830805134189032,-0.35749497266805996,5
4.840806801133523,-0.25918039404345516,5
4.8508084680780135,-0.13498351996344077,5
4.860810135022504,-0.03823196566224098,5
4.870811801966995,0.0690304766674948,5
4.8808134689114855,0.1710392254713232,5
4.890815135855976,0.2742748643412765,5
4.900816802800467,0.3871433382275611,5
4.9108184697449575,0.46601425160533944,5
4.920820136689448,0.5412958353508601,5
4.930821803633939,0.6247345015229768,5
4.9408234705784295,0.6706582564705922,5
4.950825137522921,0.717627645236962,5
4.960826804467412,0.7720567957462212,5
4.970828471411902,0.7652663007492418,5
4.980830138356393,0.7776817938068699,5
4.990831805300884,0.7736389487616995,5
5.0008334722453744,0.7360357573739447,5
5.010835139189865,0.7198235406318989,5
5.020836806134356,0.6741076955767632,5
5.0308384730788465,0.6422249770164996,5
5.040840140023337,0.5864027185015556,5
5.050841806967828,0.5329051680855069,5
5.0608434739123185,0.48079486546793326,5
5.07084514085681,0.4146524878412115,5
5.080846807801301,0.3458310090281229,5
5.090848474745791,0.29052875641088954,5
5.100850141690282,0.25408959089171007,5
5.110851808634773,0.1822048857256163,5
5.120853475579263,0.16000691952030527,5
5.130855142523754,0.11506789939355966,5
5.140856809468245,0.06111679074515332,5
5.150858476412735,0.05869524926682255,5
5.160860143357226,0.028767454839912183,5
5.170861810301717,0.017310115525417284,5
5.180863477246208,0.013811505546915352,5
5.190865144190699,0.0019051442940633666,5
5.20086681113519,-0.0029113516390686534,5
5.21086847807968,0.00125474633244368,5
5.220870145024171,-0.001460759269318775,5
5.230871811968662,-0.01261599514439921,5
5.240873478913152,-0.004499913686486584,5
5.250875145857643,-0.01531661702196059,5
5.260876812802134,-0.02504120339519699,5
5.270878479746624,-0.03891834365610603,5
5.280880146691115,-0.0672511971066768,5
5.290881813635606,-0.09601121774637643,5
5.300883480580097,-0.1310632611494552,5
5.310885147524588,-0.15811271157501036,5
5.320886814469079,-0.21885646268635026,5
5.330888481413569,-0.2734396651607557,5
5.34089014835806,-0.33129872167047386,5
5.350891815302551,-0.39468246615771635,5
5.360893482247041,-0.4545341804037331,5
5.370895149191532,-0.5153708187160678,5
5.380896816136023,-0.5814313178644166,5
5.390898483080513,-0.6151442951168041,5
5.400900150025004,-0.6837365229620274,5
5.410901816969495,-0.7188830660288144,5
5.420903483913986,-0.7578545411892944,5
5.430905150858477,-0.7751263489517822,5
5.440906817802968,-0.7736863125216821,5
5.450908484747458,-0.8003032729844533,5
5.460910151691949,-0.7557658655811013,5
5.47091181863644,-0.7395257930297086,5
5.48091348558093,-0.6953148360681904,5
5.490915152525421,-0.6444145934203492,5
5.500916819469912,-0.5526215232215047,5
5.510918486414402,-0.47940886266353966,5
5.520920153358893,-0.39952983732067454,5
5.5309218203033845,-0.3030186626741035,5
5.540923487247875,-0.1844900082145774,5
5.550925154192366,-0.07268136960235139,5
5.5609268211368565,0.02208129209929043,5
5.570928488081347,0.13756908825571051,5
5.580930155025838,0.2561277383478077,5
5.590931821970329,0.3339393751073757,5
5.600933488914819,0.43425060036513735,5
5.61093515585931,0.519686116640625,5
5.620936822803801,0.586170971117185,5
5.630938489748291,0.6683882600943347,5
5.640940156692782,0.7146637517564285,5
5.6509418236372735,0.7377502792003007,5
5.660943490581764,0.7454621448605405,5
5.670945157526255,0.7831974985559581,5
5.6809468244707455,0.7864663826069015,5
5.690948491415236,0.7703975739036458,5
5.700950158359727,0.7323547899355699,5
5.7109518253042175,0.6969513099128144,5
5.720953492248708,0.6684152283398077,5
5.730955159193199,0.5872554818208434,5
5.7409568261376895,0.542366206855632,5
5.75095849308218,0.5068764191828441,5
5.760960160026672,0.41953850633500145,5
5.7709618269711624,0.3806812707976765,5
5.780963493915653,0.3253767188271362,5
5.790965160860144,0.2648204314275761,5
5.8009668278046345,0.20998194764517036,5
5.810968494749125,0.16256527598710893,5
5.820970161693616,0.12299635133270038,5
5.8309718286381065,0.07967215883363984,5
5.840973495582597,0.05249353001673416,5
5.850975162527088,0.03285569599527239,5
5.8609768294715785,0.028488076240105416,5
5.870978496416069,0.001683214916902799,5
5.880980163360561,-0.004718663108402811,5
5.890981830305051,-0.002254398825936768,5
5.900983497249542,-0.0064939761231053075,5
5.910985164194033,-0.011109289826279322,5
5.920986831138523,0.010231527713211248,5
5.930988498083014,-0.009912797517314744,5
5.940990165027505,-0.018013457973107695,5
5.950991831971995,-0.012289639130072593,5
5.960993498916486,-0.02791786271834098,5
5.970995165860977,-0.0505608175941098,5
5.9809968328054675,-0.06692311422712026,5
5.990998499749958,-0.0993294389616573,5
6.00100016669445,-0.16052352385414848,5
6.01100183363894,-0.1961978930298247,5
6.021003500583431,-0.24521614998706492,5
6.031005167527922,-0.30463475074258317,5
6.041006834472412,-0.36676627098976583,5
6.051008501416903,-0.4254934816528739,5
6.061010168361394,-0.5067475823286071,5
6.071011835305884,-0.5557414358655335,5
6.081013502250375,-0.6093555270900325,5
6.091015169194866,-0.6647651778315855,5
6.101016836139356,-0.6917980558230177,5
6.111018503083848,-0.7189044156903923,5
6.121020170028339,-0.7494819753902396,5
6.131021836972829,-0.7767567795177159,5
6.14102350391732,-0.7843924249908418,5
6.151025170861811,-0.7689771519193785,5
6.161026837806301,-0.7447264254657706,5
6.171028504750792,-0.7168330600266516,5
6.181030171695283,-0.6482149025148706,5
6.191031838639773,-0.5935411916018614,5
6.201033505584264,-0.5162115492545928,5
6.211035172528755,-0.43839531980394236,5
6.221036839473245,-0.34523060940920997,5
6.231038506417737,-0.23148374819583908,5
6.241040173362228,-0.13550029961759152,5
6.251041840306718,-0.022660452206441473,5
6.261043507251209,0.06701316245013261,5
6.2710451741957,0.18574541573535458,5
6.28104684114019,0.2801178949417601,5
6.291048508084681,0.3772685848895194,5
6.301050175029172,0.47542563039332253,5
6.311051841973662,0.5618366331992073,5
6.321053508918153,0.6345100537220933,5
6.331055175862644,0.6754135787045706,5
6.341056842807134,0.7116442630775027,5
6.351058509751626,0.7680141200966658,5
6.361060176696117,0.7644353167283485,5
6.371061843640607,0.7944247944138879,5
6.381063510585098,0.7704482380747287,5
6.391065177529589,0.7512789416787018,5
6.401066844474079,0.7142522432688307,5
6.41106851141857,0.6631697855684133,5
6.421070178363061,0.6237210498140134,5
6.431071845307551,0.5750233587492936,5
6.441073512252042,0.5335838394099813,5
6.451075179196533,0.44315200851645514,5
6.461076846141024,0.41059877553785856,5
6.471078513085515,0.33171151895482026,5
6.4810801800300055,0.2993461565008743,5
6.491081846974496,0.22552315137106835,5
6.501083513918987,0.1826662206534499,5
6.5110851808634775,0.13913589324794332,5
6.521086847807968,0.10878327133571966,5
6.531088514752459,0.06477834464158722,5
6.54109018169695,0.04559547240719404,5
6.55109184864144,0.03348619702639788,5
6.561093515585931,-0.002941673365304716,5
6.571095182530422,0.01799263724095459,5
6.581096849474913,0.009616728883209611,5
6.591098516419404,0.013658933838453999,5
6.6011001833638945,-0.0015279777967445965,5
6.611101850308385,0.003480216636802997,5
6.621103517252876,0.004475081017362739,5
6.6311051841973665,-0.00034774323207766456,5
6.641106851141857,-0.010898466868708887,5
6.651108518086348,-0.019380086056231833,5
6.6611101850308385,-0.044817099929880144,5
6.671111851975329,-0.07534768733738965,5
6.68111351891982,-0.10406189560265167,5
6.6911151858643105,-0.14496114359711684,5
6.701116852808802,-0.19069723719361598,5
6.711118519753293,-0.23245894088269276,5
6.721120186697783,-0.26312324766209194,5
6.731121853642274,-0.3459708269538761,5
6.741123520586765,-0.4051332547832149,5
6.7511251875312555,-0.4362919389003585,5
6.761126854475746,-0.5057515031746568,5
6.771128521420237,-0.5588206207995152,5
6.7811301883647275,-0.6130786686563399,5
6.791131855309218,-0.680105814994845,5
6.801133522253709,-0.7206559443199312,5
6.8111351891982,-0.7556288330348736,5
6.821136856142691,-0.7789199602037323,5
6.831138523087182,-0.7687477482104038,5
6.841140190031672,-0.7904812313408496,5
6.851141856976163,-0.7573177149796319,5
6.861143523920654,-0.727018815140146,5
6.871145190865144,-0.681124795473838,5
6.881146857809635,-0.6374136081867162,5
6.891148524754126,-0.5584044475539939,5
6.901150191698616,-0.4745872180598215,5
6.911151858643107,-0.3873731067993054,5
6.921153525587598,-0.2839793087201949,5
6.931155192532089,-0.19294308185746814,5
6.94115685947658,-0.09605762461024706,5
6.951158526421071,-0.0026219969416148674,5
6.961160193365561,0.15792305918954003,5
6.971161860310052,0.2363811531039762,5
6.981163527254543,0.34808458465200864,5
6.991165194199033,0.4311805899493827,5
7.001166861143524,0.5182524990489656,5
7.011168528088015,0.5902553177250747,5
7.021170195032505,0.6688430215448827,5
7.031171861976996,0.7209512972582688,5
7.041173528921487,0.7464447020024301,5
7.051175195865978,0.7888805808837102,5
7.061176862810469,0.7651367379234876,5
7.07117852975496,0.7705625600320649,5
7.08118019669945,0.7723384064202777,5
7.091181863643941,0.7531439402755973,5
7.101183530588432,0.7063239635846775,5
7.111185197532922,0.6679776836425407,5
7.121186864477413,0.6156348550003792,5
7.131188531421904,0.5601219368430449,5
7.141190198366394,0.5018028401271555,5
7.151191865310885,0.4350492761646109,5
7.161193532255377,0.3710024795921202,5
7.171195199199867,0.30754418674267625,5
7.181196866144358,0.25785476196606083,5
7.191198533088849,0.21843666224341235,5
7.201200200033339,0.16825645389339086,5
7.21120186697783,0.12927909092672213,5
7.221203533922321,0.09405057638460834,5
7.231205200866811,0.06035286414609169,5
7.241206867811302,0.0310083095459241,5
7.251208534755793,0.01809905392601673,5
7.261210201700283,0.006515471783012216,5
7.271211868644774,-0.02629770501998915,5
7.2812135355892655,-0.00558523171514214,5
7.291215202533756,-0.01012944258895243,5
7.301216869478247,0.004089886520427288,5
7.311218536422738,0.005986096442725718,5
7.321220203367228,-0.00811583582676734,5
7.331221870311719,0.0012247773865403447,5
7.34122353725621,-0.027288061273082885,5
7.3512252042007,-0.04717995090020452,5
7.361226871145191,-0.05557518409103324,5
7.371228538089682,-0.08406570646403157,5
7.381230205034172,-0.11888396895452585,5
7.391231871978664,-0.15708706426975041,5
7.4012335389231545,-0.21695953514381847,5
7.411235205867645,-0.26486612957906686,5
7.421236872812136,-0.3135515724419687,5
7.4312385397566265,-0.3704356368505379,5
7.441240206701117,-0.43612202580475157,5
7.451241873645608,-0.5042636578545895,5
7.4612435405900985,-0.5355397947236482,5
7.471245207534589,-0.5983623775598611,5
7.48124687447908,-0.6562100357393365,5
7.4912485414235706,-0.7127825155477574,5
7.501250208368061,-0.7572561223215802,5
7.511251875312553,-0.7577815779329049,5
7.5212535422570435,-0.7853463670837567,5
7.531255209201534,-0.7809688089603308,5
7.541256876146025,-0.763199633610308,5
7.5512585430905155,-0.742499417134542,5
7.561260210035006,-0.6875607583405903,5
7.571261876979497,-0.6658466348388435,5
7.5812635439239875,-0.6068912080725394,5
7.591265210868478,-0.5248414892553683,5
7.601266877812969,-0.453016114739071,5
7.6112685447574595,-0.3308140111838905,5
7.62127021170195,-0.23744867156628485,5
7.631271878646442,-0.136372856201048,5
7.641273545590932,-0.03315469027847786,5
7.651275212535423,0.07020741584167506,5
7.661276879479914,0.19783537280528465,5
7.671278546424404,0.3026245520903826,5
7.681280213368895,0.3893970708536647,5
7.691281880313386,0.48936721064425603,5
7.7012835472578764,0.5704596202441449,5
7.711285214202367,0.6137917777951335,5
7.721286881146858,0.6731724976074384,5
7.7312885480913485,0.7237918703545227,5
7.74129021503584,0.762568690417599,5
7.751291881980331,0.7839701063408641,5
7.761293548924821,0.7764503930514466,5
7.771295215869312,0.7713141090926681,5
7.781296882813803,0.763199901406218,5
7.791298549758293,0.7303489216541981,5
7.801300216702784,0.6675268732676602,5
7.811301883647275,0.6366731495179094,5
7.821303550591765,0.572816573862067,5
7.831305217536256,0.5186493260620142,5
7.841306884480747,0.43687801506977536,5
7.851308551425237,0.391776168948913,5
7.861310218369729,0.3523848312282432,5
7.87131188531422,0.2858284639340216,5
7.88131355225871,0.231506946569138,5
7.891315219203201,0.1698784581466238,5
7.901316886147692,0.1372035404095965,5
7.911318553092182,0.102356862622394,5
7.921320220036673,0.059874485267511594,5
7.931321886981164,0.04544641941910644,5
7.941323553925654,0.039568407618089066,5
7.951325220870145,0.02395866194346847,5
7.961326887814636,0.0025786426041783887,5
7.971328554759126,0.005911423938690715,5
7.981330221703618,0.012366667218223909,5
7.991331888648109,-0.0011598497465402813,5
8.001333555592598,-0.00123161317089767,5
8.01133522253709,-0.0015649117131207222,5
8.02133688948158,-0.010442232892162815,5
8.031338556426071,-0.03136796669783627,5
8.041340223370563,-0.03279287458188499,5
8.051341890315053,-0.04821237385713145,5
8.061343557259544,-0.062211475910056366,5
8.071345224204034,-0.11608018360121426,5
8.081346891148526,-0.13914783157609406,5
8.091348558093015,-0.16498599119282684,5
8.101350225037507,-0.23400081223312785,5
8.111351891981997,-0.28421615214694845,5
8.121353558926488,-0.35024684765833836,5
8.131355225870978,-0.405793068895134,5
8.14135689281547,-0.4611336602626958,5
8.151358559759961,-0.5306760681909894,5
8.161360226704451,-0.5661517427460301,5
8.171361893648942,-0.6404252137959895,5
8.181363560593432,-0.6802344271365756,5
8.191365227537924,-0.7056917280394337,5
8.201366894482414,-0.7178147280381395,5
8.211368561426905,-0.7770149778584979,5
8.221370228371395,-0.7884096993203734,5
8.231371895315887,-0.7742589439281712,5
8.241373562260376,-0.7495716674339343,5
8.251375229204868,-0.7208135887435255,5
8.261376896149358,-0.6945793043572299,5
8.27137856309385,-0.6084669899963756,5
8.28138023003834,-0.5718127802228941,5
8.29138189698283,-0.48077303895890156,5
8.301383563927322,-0.397717667040117,5
8.311385230871812,-0.2911389978947292,5
8.321386897816303,-0.19879992970436602,5
8.331388564760793,-0.0666295190875783,5
8.341390231705285,0.026715870816551426,5
8.351391898649775,0.14992397189839735,5
8.361393565594266,0.25000328212878875,5
8.371395232538756,0.3496932098481283,5
8.381396899483248,0.43459243721967583,5
8.391398566427739,0.5369206092097681,5
8.401400233372229,0.6016380176849997,5
8.41140190031672,0.664147176678732,5
8.42140356726121,0.7072437041918863,5
8.431405234205702,0.7518979001648698,5
8.441406901150192,0.7844878530956971,5
8.451408568094683,0.7906042429693168,5
8.461410235039173,0.772223595005652,5
8.471411901983664,0.7595302506644721,5
8.481413568928154,0.7290934258386986,5
8.491415235872646,0.7009500161032144,5
8.501416902817137,0.6537031124559952,5
8.511418569761627,0.6082907645857514,5
8.521420236706119,0.5514670118966394,5
8.531421903650608,0.4952256710776559,5
8.5414235705951,0.43254055931664415,5
8.55142523753959,0.3536729452877916,5
8.561426904484081,0.3094007910902237,5
8.571428571428571,0.25984262730580987,5
8.581430238373063,0.21313705082367437,5
8.591431905317553,0.15714585851387486,5
8.601433572262044,0.13005146367037373,5
8.611435239206534,0.08019332299274431,5
8.621436906151025,0.060607742347025526,5
8.631438573095517,0.029485973539380043,5
8.641440240040007,0.019514353034186086,5
8.651441906984498,0.03526291058167001,5
8.661443573928988,0.0032290654737583283,5
8.67144524087348,-0.011804091211406301,5
8.68144690781797,-0.002342234387692226,5
8.691448574762461,0.007032478309128622,5
8.70145024170695,-0.005838394304964314,5
8.711451908651442,-0.0013192750906013983,5
8.721453575595932,-0.025154779051857833,5
8.731455242540424,-0.03210623012403903,5
8.741456909484915,-0.023960161844817127,5
8.751458576429405,-0.050714797067441336,5
8.761460243373897,-0.08264960040812488,5
8.771461910318386,-0.1166651663025841,5
8.781463577262878,-0.1713331339117365,5
8.791465244207368,-0.20839017720688405,5
8.80146691115186,-0.25265080921009336,5
8.811468578096349,-0.29102077040766927,5
8.82147024504084,-0.37726918768020745,5
8.83147191198533,-0.4366737383241873,5
8.841473578929822,-0.5076551848065943,5
8.851475245874314,-0.5441266658858971,5
8.861476912818803,-0.6024464927563233,5
8.871478579763295,-0.6530917605749423,5
8.881480246707785,-0.7134464087208491,5
8.891481913652276,-0.7162445702598262,5
8.901483580596766,-0.7692975893363433,5
8.911485247541258,-0.7677957861594814,5
8.921486914485747,-0.7639995055948914,5
8.931488581430239,-0.7514284709547698,5
8.941490248374729,-0.7340851965283693,5
8.95149191531922,-0.71814321789902,5
8.96149358226371,-0.637697358277176,5
8.971495249208202,-0.6005369334923604,5
8.981496916152693,-0.5159772578283828,5
8.991498583097183,-0.430282918078577,5
9.001500250041675,-0.3213494254543608,5
9.011501916986164,-0.230458010430506,5
9.021503583930656,-0.1222271168050858,5
9.031505250875146,-0.015170494368640246,5
9.041506917819637,0.08016453624745282,5
9.051508584764127,0.1970631775303217,5
9.061510251708619,0.30682878459789553,5
9.071511918653108,0.3690261745841487,5
9.0815135855976,0.4816381425641564,5
9.091515252542091,0.5561042242979611,5
9.101516919486581,0.6340783082094722,5
9.111518586431073,0.6815550509825241,5
9.121520253375563,0.7117952233944425,5
9.131521920320054,0.765083426790129,5
9.141523587264544,0.7772261575420674,5
9.151525254209036,0.7743674597096035,5
9.161526921153525,0.7613542279897455,5
9.171528588098017,0.7480545115404119,5
9.181530255042507,0.7139270078739355,5
9.191531921986998,0.6834165682905069,5
9.20153358893149,0.6265867146684678,5
9.21153525587598,0.5535530226909952,5
9.221536922820471,0.5096057060224152,5
9.231538589764961,0.47158551198452736,5
9.241540256709452,0.4044535413172744,5
9.251541923653942,0.31544203658431463,5
9.261543590598434,0.2799483768035628,5
9.271545257542924,0.24084323098828014,5
9.281546924487415,0.17479499865277282,5
9.291548591431905,0.1360662055645031,5
9.301550258376396,0.09907396413720293,5
9.311551925320888,0.07638548641911333,5
9.321553592265378,0.04964582976574277,5
9.33155525920987,0.02742863746446561,5
9.34155692615436,0.00984451057349481,5
9.35155859309885,0.014202754693291403,5
9.36156026004334,0.0020410313178624495,5
9.371561926987832,0.007681307313134112,5
9.381563593932322,-0.0031571157586652455,5
9.391565260876813,-0.0012411823416847653,5
9.401566927821303,0.0007450703990193566,5
9.411568594765795,-0.011829418322302734,5
9.421570261710285,-0.013367951525190979,5
9.431571928654776,-0.016802576495687636,5
9.441573595599268,-0.04127778484654918,5
9.451575262543757,-0.07073699051509448,5
9.461576929488249,-0.09497774351631728,5
9.471578596432739,-0.14099236659069037,5
9.48158026337723,-0.1771397012149962,5
9.49158193032172,-0.20944663335540148,5
9.501583597266212,-0.2895352264261808,5
9.511585264210701,-0.35083697325669017,5
9.521586931155193,-0.3911068251072728,5
9.531588598099683,-0.4713767148503235,5
9.541590265044174,-0.5106697593480868,5
9.551591931988666,-0.5591397543916009,5
9.561593598933156,-0.6391462479682563,5
9.571595265877647,-0.6756478949673832,5
9.581596932822137,-0.720663775520218,5
9.591598599766629,-0.7468239763225897,5
9.601600266711118,-0.7613905931201285,5
9.61160193365561,-0.7741773449066865,5
9.6216036006001,-0.7733835614712051,5
9.631605267544591,-0.75007792314079,5
9.641606934489081,-0.7217276814290638,5
9.651608601433573,-0.6801231728380954,5
9.661610268378064,-0.607346285782955,5
9.671611935322554,-0.5417744440335849,5
9.681613602267046,-0.490217339036663,5
9.691615269211535,-0.388323000036198,5
9.701616936156027,-0.29420408710002255,5
9.711618603100517,-0.17371357401379153,5
9.721620270045008,-0.07015913041569184,5
9.731621936989498,0.015738330873833098,5
9.74162360393399,0.1363524745609708,5
9.75162527087848,0.2542187814473452,5
9.761626937822971,0.35129034824900524,5
9.77162860476746,0.42669133752489175,5
9.781630271711952,0.5225608340474984,5
9.791631938656444,0.6044316495923118,5
9.801633605600934,0.6606538372718679,5
9.811635272545425,0.7124331171026667,5
9.821636939489915,0.7544856574054032,5
9.831638606434407,0.7632682875067421,5
9.841640273378896,0.7680449362471073,5
9.851641940323388,0.763444932651799,5
9.861643607267878,0.7512857192574981,5
9.87164527421237,0.7330500902569104,5
9.881646941156859,0.6956471976820846,5
9.89164860810135,0.6578116237408448,5
9.901650275045842,0.6011900369923395,5
9.911651941990332,0.562791489955822,5
9.921653608934824,0.49368618891055993,5
9.931655275879313,0.40871606179330516,5
9.941656942823805,0.37548582537592384,5
9.951658609768295,0.306930794282716,5
9.961660276712786,0.24245074348719992,5
9.971661943657276,0.185428720011795,5
9.981663610601768,0.16165599730086178,5
9.991665277546257,0.11031197128244416,5
10.001666944490749,0.08504422860774856,5
10.01166861143524,0.053803861910787724,5
10.02167027837973,0.028733917625615148,5
10.031671945324222,0.022948081145038303,5
10.041673612268712,0.008498930955107946,5
10.051675279213203,0.002593457414458934,5
10.061676946157693,0.015905157602064887,5
10.071678613102184,-0.0134866495275461,5
10.081680280046674,-0.0017983826489837167,5
10.091681946991166,0.005749754035352954,5
10.101683613935656,-0.003596568922793767,5
10.111685280880147,-0.009236760633134802,5
10.121686947824637,-0.007657686230984478,5
10.131688614769129,-0.01975352815734737,5
10.14169028171362,-0.05651483574331886,5
10.15169194865811,-0.0699785308247907,5
10.161693615602601,-0.11974228758584127,5
10.171695282547091,-0.14826720768098792,5
10.181696949491583,-0.21338699146101006,5
10.191698616436073,-0.2640601881558033,5
10.201700283380564,-0.3301598838791957,5
10.211701950325054,-0.358414512764054,5
10.221703617269545,-0.4280129185920368,5
10.231705284214035,-0.4722623834656015,5
10.241706951158527,-0.5739715396856221,5
10.251708618103018,-0.6155797900619983,5
10.261710285047508,-0.6605870703740426,5
10.271711951992,-0.7007615363476328,5
10.28171361893649,-0.7340050851260349,5
10.291715285880981,-0.7593778101542555,5
10.30171695282547,-0.7689768277325353,5
10.311718619769962,-0.7748546239650219,5
10.321720286714452,-0.784064459919379,5
10.331721953658944,-0.7317668046115497,5
10.341723620603434,-0.6950445881082453,5
10.351725287547925,-0.6527693249737417,5
10.361726954492417,-0.5716831127581657,5
10.371728621436906,-0.5228125446728145,5
10.381730288381398,-0.4195375786888222,5
10.391731955325888,-0.33993754627448214,5
10.40173362227038,-0.23125126409234356,5
10.41173528921487,-0.11781671694130214,5
10.42173695615936,-0.0126893876535962,5
10.43173862310385,0.11051734686137296,5
10.441740290048342,0.20192115346326792,5
10.451741956992832,0.2790695496980743,5
10.461743623937323,0.39304833113638205,5
10.471745290881813,0.49275094119178403,5
10.481746957826305,0.5563963845774298,5
10.491748624770796,0.6251943495407135,5
10.501750291715286,0.7050534428817724,5
10.511751958659778,0.7190746603168928,5
10.521753625604267,0.7644538843357038,5
10.531755292548759,0.7629177222264875,5
10.541756959493249,0.7791824978355983,5
10.55175862643774,0.7711578060158955,5
10.56176029338223,0.7550601065060653,5
10.571761960326722,0.7169141909529086,5
10.581763627271211,0.6725459490912452,5
10.591765294215703,0.6179376705130732,5
10.601766961160195,0.5878601552234517,5
10.611768628104684,0.5126101709573931,5
10.621770295049176,0.4740038408580149,5
10.631771961993666,0.39829482299992475,5
10.641773628938157,0.3260210615779197,5
10.651775295882647,0.2792654624370984,5
10.661776962827139,0.217420506080736,5
10.671778629771628,0.16670644150947783,5
10.68178029671612,0.12437820905600923,5
10.69178196366061,0.09311754050005867,5
10.701783630605101,0.07899963194104515,5
10.711785297549593,0.034433379526341866,5
10.721786964494083,0.02750566780891933,5
10.731788631438574,0.0037178756031754374,5
10.741790298383064,0.0046682745034794465,5
10.751791965327556,-0.02055907264080402,5
10.761793632272045,-0.007285874631521094,5
10.771795299216537,0.001986412729764286,5
10.781796966161027,0.008805149493466764,5
10.791798633105518,-0.0023170094447645074,5
10.801800300050008,-0.0076645209517632535,5
10.8118019669945,-0.032226202891808234,5
10.82180363393899,0.009187688974608747,5
10.831805300883481,-0.04469430646867702,5
10.841806967827972,-0.06092129552411492,5
10.851808634772462,-0.10709193767506811,5
10.861810301716954,-0.13517314901340802,5
10.871811968661444,-0.19249302477425295,5
10.881813635605935,-0.21365870128995723,5
10.891815302550425,-0.2694285051756983,5
10.901816969494917,-0.3499348708134286,5
10.911818636439406,-0.41061367568179696,5
10.921820303383898,-0.4626102981221191,5
10.931821970328388,-0.5312865083439717,5
10.94182363727288,-0.5813185404222356,5
10.95182530421737,-0.6472695199580883,5
10.96182697116186,-0.6766507667943392,5
10.971828638106352,-0.7437171478541824,5
10.981830305050842,-0.7481901713086309,5
10.991831971995333,-0.7916492977928267,5
11.001833638939823,-0.7861673886168358,5
11.011835305884315,-0.7773430250112334,5
11.021836972828805,-0.7461585832330755,5
11.031838639773296,-0.7067509293637287,5
11.041840306717786,-0.6706931637972839,5
11.051841973662277,-0.6165081391604608,5
11.061843640606769,-0.5347954079201221,5
11.071845307551259,-0.46362857979557154,5
11.08184697449575,-0.39252133990708166,5
11.09184864144024,-0.2769335449522314,5
11.101850308384732,-0.1653018517228159,5
11.111851975329222,-0.07406667835170212,5
11.121853642273713,0.027311327778191227,5
11.131855309218203,0.14418654616362855,5
11.141856976162694,0.25738932224943395,5
11.151858643107184,0.3584823803542314,5
11.161860310051676,0.44601353000388144,5
11.171861976996166,0.5454783793679228,5
11.181863643940657,0.5956266759156044,5
11.191865310885149,0.6640026990461619,5
11.201866977829638,0.724439875695527,5
11.21186864477413,0.764497436465868,5
11.22187031171862,0.7808708231875968,5
11.231871978663111,0.7726146277149302,5
11.241873645607601,0.7840173532587983,5
11.251875312552093,0.7524686148866115,5
11.261876979496583,0.7332497844868097,5
11.271878646441074,0.6929560389540435,5
11.281880313385564,0.6402176519738331,5
11.291881980330055,0.6214348893996442,5
11.301883647274547,0.523174861075026,5
11.311885314219037,0.48700213103457224,5
11.321886981163528,0.4328248661784156,5
11.331888648108018,0.3570210377140773,5
11.34189031505251,0.29863536202477514,5
11.351891981997,0.23670706146093798,5
11.361893648941491,0.1912523838686137,5
11.37189531588598,0.14707513549054957,5
11.381896982830472,0.10823999066059614,5
11.391898649774962,0.08305196684305395,5
11.401900316719454,0.03447786887500873,5
11.411901983663945,0.011078128158483365,5
11.421903650608435,0.0013476421040816457,5
11.431905317552927,0.011156409050169187,5
11.441906984497416,0.004301429434906611,5
11.451908651441908,0.014917344118228933,5
11.461910318386398,-0.0023475655825914788,5
11.47191198533089,0.009176539058434309,5
11.481913652275379,0.0033478201209530293,5
11.49191531921987,-0.012008826162519415,5
11.50191698616436,-0.00997616881022456,5
11.511918653108852,-0.01882806423399315,5
11.521920320053344,-0.0368733688080218,5
11.531921986997833,-0.0577107028737132,5
11.541923653942325,-0.08547945401859051,5
11.551925320886815,-0.11774428130212071,5
11.561926987831306,-0.15124627312669833,5
11.571928654775796,-0.20530572550176052,5
11.581930321720288,-0.24521552752527345,5
11.591931988664777,-0.3188457704351768,5
11.601933655609269,-0.37597089744688683,5
11.611935322553759,-0.4316439195574291,5
11.62193698949825,-0.5127196395338469,5
11.63193865644274,-0.5506795032219833,5
11.641940323387232,-0.6203498943903863,5
11.651941990331723,-0.6605125361269883,5
11.661943657276213,-0.7058392960285792,5
11.671945324220705,-0.7440876399257769,5
11.681946991165194,-0.7595718635088708,5
11.691948658109686,-0.7861678644586387,5
11.701950325054176,-0.7794096337916844,5
11.711951991998667,-0.7714601245483974,5
11.721953658943157,-0.7510738618686814,5
11.731955325887649,-0.6962125926372748,5
11.741956992832138,-0.6520260146785736,5
11.75195865977663,-0.5789855903696967,5
11.761960326721121,-0.4989787808476074,5
11.771961993665611,-0.42506266198782183,5
11.781963660610103,-0.322429665330806,5
11.791965327554593,-0.24425090892579834,5
11.801966994499084,-0.11755985508847003,5
11.811968661443574,-0.014205880790562966,5
11.821970328388065,0.07994498390080604,5
11.831971995332555,0.19736072012384628,5
11.841973662277047,0.295170609241419,5
11.851975329221537,0.39201152927300087,5
11.861976996166028,0.48496056418630845,5
11.87197866311052,0.5756958816021678,5
11.88198033005501,0.6390819499648179,5
11.891981996999501,0.7016625640284903,5
11.90198366394399,0.7327161496001303,5
11.911985330888482,0.7571520117226986,5
11.921986997832972,0.763888938244552,5
11.931988664777464,0.7709369922921615,5
11.941990331721954,0.773782993658404,5
11.951991998666445,0.7564873531839511,5
11.961993665610935,0.7170653825505738,5
11.971995332555426,0.6813178872431817,5
11.981996999499916,0.6210162286224087,5
11.991998666444408,0.5761843822214646,5
12.0020003333889,0.5176547166128613,5
12.01200200033339,0.4612264843047437,5
12.02200366727788,0.3958587979024086,5
12.03200533422237,0.34077667283664664,5
12.042007001166862,0.29235826307881196,5
12.052008668111352,0.2167226320363828,5
12.062010335055843,0.16561172316904368,5
12.072012002000333,0.12995100188589323,5
12.082013668944825,0.10569020654066294,5
12.092015335889315,0.06473983672803946,5
12.102017002833806,0.048606369670319914,5
12.112018669778298,0.04140124831764597,5
12.122020336722787,0.016053352050356472,5
12.132022003667279,0.023054114382244233,5
12.142023670611769,-0.005158176800993532,5
12.15202533755626,-0.0006388512205975045,5
12.16202700450075,-0.006538648419495937,5
12.172028671445242,0.014535465180448744,5
12.182030338389731,0.00307130562053177,5
12.192032005334223,-0.016416400592332257,5
12.202033672278713,0.0036469815106487773,5
12.212035339223204,-0.032080301519080985,5
12.222037006167696,-0.058213847366990375,5
12.232038673112186,-0.07513318811771674,5
12.242040340056677,-0.10962638483941828,5
12.252042007001167,-0.15321689428101132,5
12.262043673945659,-0.18915621301813293,5
12.272045340890148,-0.23451096372575064,5
12.28204700783464,-0.2641555123314314,5
12.29204867477913,-0.35321938226026295,5
12.302050341723621,-0.4090749226482052,5
12.312052008668111,-0.4900577974776343,5
12.322053675612603,-0.5366800526681821,5
12.332055342557092,-0.5781329589934388,5
12.342057009501584,-0.63475781646205,5
12.352058676446076,-0.6955235520371962,5
12.362060343390565,-0.7252220605358015,5
12.372062010335057,-0.7547477739029175,5
12.382063677279547,-0.7709026082756529,5
12.392065344224038,-0.7772556239052955,5
12.402067011168528,-0.7746244436524586,5
12.41206867811302,-0.7465919299312566,5
12.42207034505751,-0.7264829538040753,5
12.432072012002001,-0.6846128538092818,5
12.44207367894649,-0.6277389767477566,5
12.452075345890982,-0.5375837433707735,5
12.462077012835474,-0.4779521132391711,5
12.472078679779964,-0.37537908841488327,5
12.482080346724455,-0.27998595842897656,5
12.492082013668945,-0.13662206089199883,5
12.502083680613437,-0.0638054357205893,5
12.512085347557926,0.03786161869525115,5
12.522087014502418,0.14166162206815772,5
12.532088681446908,0.2465202034818683,5
12.5420903483914,0.3640137500796529,5
12.552092015335889,0.4279482443998873,5
12.56209368228038,0.5233223174886674,5
12.572095349224872,0.5956773687464156,5
12.582097016169362,0.6750840784571077,5
12.592098683113853,0.6954551581913853,5
12.602100350058343,0.7442684476370076,5
12.612102017002835,0.7713644984226856,5
12.622103683947325,0.7752719749841374,5
12.632105350891816,0.7710876421630908,5
12.642107017836306,0.765198463659629,5
12.652108684780798,0.7291145315246766,5
12.662110351725287,0.6758810497827742,5
12.672112018669779,0.6529383200121893,5
12.682113685614269,0.5810639212193929,5
12.69211535255876,0.5323355469413984,5
12.702117019503252,0.4800728904018449,5
12.712118686447742,0.4195252394897643,5
12.722120353392233,0.349301440511375,5
12.732122020336723,0.29551837281069576,5
12.742123687281214,0.23989581529156825,5
12.752125354225704,0.19749738869350744,5
12.762127021170196,0.15886312070811054,5
12.772128688114686,0.10501674912265227,5
12.782130355059177,0.08394086069000309,5
12.792132022003667,0.05403522064965383,5
12.802133688948159,0.037377426776980124,5
12.81213535589265,0.013571461709013069,5
12.82213702283714,-0.001528401355967315,5
12.832138689781631,0.0073737070004335865,5
12.842140356726121,0.005820721534555311,5
12.852142023670613,-0.0035322287297186216,5
12.862143690615103,-0.013186758369307473,5
12.872145357559594,0.013336798585235985,5
12.882147024504084,-0.017248184894267007,5
12.892148691448575,-0.023196149210674134,5
12.902150358393065,-0.0018603124002503045,5
12.912152025337557,-0.04982559450167886,5
12.922153692282048,-0.0660564687378231,5
12.932155359226538,-0.07551592252537105,5
12.94215702617103,-0.12591280752262046,5
12.95215869311552,-0.14980675280153372,5
12.962160360060011,-0.20928422171985134,5
12.9721620270045,-0.26676957834501736,5
12.982163693948992,-0.3262815277016299,5
12.992165360893482,-0.40115316809185997,5
13.002167027837974,-0.43258381247856587,5
13.012168694782464,-0.5033982663619929,5
13.022170361726955,-0.5618231720855091,5
13.032172028671445,-0.6169091169966159,5
13.042173695615936,-0.6683836710536372,5
13.052175362560428,-0.7063191515316615,5
13.062177029504918,-0.7438569091766618,5
13.07217869644941,-0.7695435293756231,5
13.0821803633939,-0.7761747102409227,5
13.09218203033839,-0.7806273098871704,5
13.10218369728288,-0.7695118499009395,5
13.112185364227372,-0.729290660337759,5
13.122187031171862,-0.713947355266027,5
13.132188698116353,-0.6472996056541758,5
13.142190365060843,-0.591202484211563,5
13.152192032005335,-0.49146869938655807,5
13.162193698949826,-0.40776841763563637,5
13.172195365894316,-0.3239445431090266,5
13.182197032838808,-0.24172669932895582,5
13.192198699783297,-0.09038268363592564,5
13.202200366727789,-0.001419469184430447,5
13.212202033672279,0.10497363394589224,5
13.22220370061677,0.21402784370685402,5
13.23220536756126,0.296227441837358,5
13.242207034505752,0.401577440355527,5
13.252208701450241,0.49404624251172174,5
13.262210368394733,0.5848174669575621,5
13.272212035339225,0.6329702675900787,5
13.282213702283714,0.6736544532318567,5
13.292215369228206,0.7450307466990038,5
13.302217036172696,0.7596258354179715,5
13.312218703117187,0.7633916113812677,5
13.322220370061677,0.7941906353800494,5
13.332222037006169,0.7578478062443805,5
13.342223703950658,0.7553051518335485,5
13.35222537089515,0.7152729192355519,5
13.36222703783964,0.680506277668848,5
13.372228704784131,0.6364224649756579,5
13.382230371728621,0.5344825923138388,5
13.392232038673113,0.4864160683001953,5
13.402233705617604,0.46216439396503917,5
13.412235372562094,0.376338947340024,5
13.422237039506586,0.32404356189425815,5
13.432238706451075,0.2653526428691298,5
13.442240373395567,0.22082003831844155,5
13.452242040340057,0.17460122841588518,5
13.462243707284548,0.1490355243477866,5
13.472245374229038,0.08337144055458812,5
13.48224704117353,0.059246297252234584,5
13.49224870811802,0.02642668538562974,5
13.502250375062511,0.013638368711343947,5
13.512252042007002,-0.0051602994565062045,5
13.522253708951492,0.019462511575235708,5
13.532255375895984,0.006718284463115462,5
13.542257042840474,0.006503473653961048,5
13.552258709784965,-0.007866423062889656,5
13.562260376729455,0.021340488984065733,5
13.572262043673947,-0.013367919966178194,5
13.582263710618436,-0.022989703240757685,5
13.592265377562928,-0.014806247271993353,5
13.602267044507418,-0.04039584940148318,5
13.61226871145191,-0.06338002093162912,5
13.6222703783964,-0.06900735161562334,5
13.63227204534089,-0.10739798675875747,5
13.642273712285382,-0.15326873551754192,5
13.652275379229872,-0.18571112428198341,5
13.662277046174363,-0.23232691275571538,5
13.672278713118853,-0.2881140280075528,5
13.682280380063345,-0.36002402532924827,5
13.692282047007835,-0.41651612689290257,5
13.702283713952326,-0.47820681411744687,5
13.712285380896816,-0.5353343995696396,5
13.722287047841307,-0.6107764138156044,5
13.732288714785797,-0.628659232848923,5
13.742290381730289,-0.6825535087782935,5
13.75229204867478,-0.7283609737402851,5
13.76229371561927,-0.7587068313728147,5
13.772295382563762,-0.7621038123774958,5
13.782297049508252,-0.7733553789039408,5
13.792298716452743,-0.7931822927181253,5
13.802300383397233,-0.7632288905119958,5
13.812302050341724,-0.7241308697914328,5
13.822303717286214,-0.6792120272401524,5
13.832305384230706,-0.6239815599536773,5
13.842307051175196,-0.5500484845856608,5
13.852308718119687,-0.4478543894221242,5
13.862310385064179,-0.3605908567887251,5
13.872312052008668,-0.24547818264036875,5
13.88231371895316,-0.16868136379162174,5
13.89231538589765,-0.0639924437806515,5
13.902317052842141,0.048458528979173424,5
13.912318719786631,0.14374973504669775,5
13.922320386731123,0.26479473965944766,5
13.932322053675612,0.3656556252781282,5
13.942323720620104,0.4580719285733997,5
13.952325387564594,0.5318967643154423,5
13.962327054509085,0.6072399129593992,5
13.972328721453577,0.677052063447866,5
13.982330388398067,0.688333200215617,5
13.992332055342558,0.7311295361062349,5
14.002333722287048,0.7537373284735241,5
14.01233538923154,0.7820462051115351,5
14.02233705617603,0.7713450972251249,5
14.032338723120521,0.763293070405164,5
14.04234039006501,0.7269872844165343,5
14.052342057009502,0.6829888634141629,5
14.062343723953992,0.649706140447642,5
14.072345390898484,0.5857071722099385,5
14.082347057842973,0.5375410730943402,5
14.092348724787465,0.48447824745407453,5
14.102350391731957,0.418832386558063,5
14.112352058676446,0.34645053991755603,5
14.122353725620938,0.28462547619944184,5
14.132355392565428,0.2268567267930253,5
14.14235705950992,0.21196050494702254,5
14.152358726454409,0.1338133913877919,5
14.1623603933989,0.10910850739454453,5
14.17236206034339,0.07132483345076428,5
14.182363727287882,0.048121268006929625,5
14.192365394232372,0.0150884731869797,5
14.202367061176863,-0.007952236498663105,5
14.212368728121355,0.006514448353615446,5
14.222370395065845,-0.005135776779927409,5
14.232372062010336,-0.011212368226059172,5
14.242373728954826,-0.0026916297588663197,5
14.252375395899318,0.02980369769347768,5
14.262377062843807,0.009142266764130448,5
14.272378729788299,-0.011012959941260055,5
14.282380396732789,-0.01800585926302724,5
14.29238206367728,-0.0348322986687766,5
14.30238373062177,-0.03840690046280983,5
14.312385397566262,-0.0697626146324232,5
14.322387064510753,-0.10081506785069927,5
14.332388731455243,-0.15040929235360803,5
14.342390398399735,-0.17294614286791202,5
14.352392065344224,-0.20379711278835727,5
14.362393732288716,-0.26839783730860844,5
14.372395399233206,-0.3419093853208813,5
14.382397066177697,-0.37573309752721107,5
14.392398733122187,-0.43820443672017695,5
14.402400400066679,-0.499501583066209,5
14.412402067011168,-0.5830278719381197,5
14.42240373395566,-0.6174168250859319,5
14.432405400900151,-0.6725620460499918,5
14.442407067844641,-0.7190438375461022,5
14.452408734789133,-0.7493293043787842,5
14.462410401733623,-0.7554094304353698,5
14.472412068678114,-0.7748041022781761,5
14.482413735622604,-0.7681378540478488,5
14.492415402567095,-0.7582953153601706,5
14.502417069511585,-0.7408202135764558,5
14.512418736456077,-0.6896018178245293,5
14.522420403400567,-0.6390543897887223,5
14.532422070345058,-0.5832523153589473,5
14.542423737289548,-0.5029691304437119,5
14.55242540423404,-0.403832493178143,5
14.562427071178531,-0.30028906896685525,5
14.57242873812302,-0.22951832662711846,5
14.582430405067512,-0.11662580605426734,5
14.592432072012002,0.0031762556860653246,5
14.602433738956494,0.11527999410735289,5
14.612435405900984,0.21755938390419674,5
14.622437072845475,0.312351618292339,5
14.632438739789965,0.4014371880388752,5
14.642440406734456,0.49643829901085407,5
14.652442073678946,0.5824865343326131,5
14.662443740623438,0.6444662708223041,5
14.67244540756793,0.7071340113537582,5
14.68244707451242,0.7311430803910373,5
14.69244874145691,0.7686196629276796,5
14.7024504084014,0.7779805270813025,5
14.712452075345892,0.7822953044267087,5
14.722453742290382,0.7841858976949865,5
14.732455409234873,0.7280979970417133,5
14.742457076179363,0.7242184424962778,5
14.752458743123855,0.6622131781329308,5
14.762460410068345,0.6234475867428908,5
14.772462077012836,0.550856898749202,5
14.782463743957328,0.5043790048048107,5
14.792465410901817,0.4168518267828359,5
14.802467077846309,0.38782721176984447,5
14.812468744790799,0.3428447853720466,5
14.82247041173529,0.26035564820257595,5
14.83247207867978,0.2147235304697666,5
14.842473745624272,0.17650752544453407,5
14.852475412568761,0.14840672594846346,5
14.862477079513253,0.0982607816832237,5
14.872478746457743,0.058925482308426994,5
14.882480413402234,0.04887952187017949,5
14.892482080346724,0.03866240702548547,5
14.902483747291216,-0.0004105404496237471,5
14.912485414235707,0.015455276208582874,5
14.922487081180197,-0.013137314952147408,5
14.932488748124689,-0.0010475765862043485,5
14.942490415069178,0.006923229503764844,5
14.95249208201367,-0.014648038949425924,5
14.96249374895816,-0.011793708572431522,5
14.972495415902651,0.0021330279889278884,5
14.982497082847141,-0.010779971048489267,5
14.992498749791633,-0.007716447877031848,5
15.002500416736122,-0.05980493695001209,5
15.012502083680614,-0.08081283329804215,5
15.022503750625106,-0.11847771233484777,5
15.032505417569595,-0.1539327564298475,5
15.042507084514087,-0.18607114743316042,5
15.052508751458577,-0.25147974375431087,5
15.062510418403068,-0.32191423835607347,5
15.072512085347558,-0.36413660052713775,5
15.08251375229205,-0.43158430069274134,5
15.09251541923654,-0.4828609266037725,5
15.102517086181031,-0.5467760112895848,5
15.11251875312552,-0.591532920342656,5
15.122520420070012,-0.6541792507433952,5
15.132522087014504,-0.6841940329579809,5
15.142523753958994,-0.7254335602342963,5
15.152525420903485,-0.756511878119478,5
15.162527087847975,-0.771791315271609,5
15.172528754792467,-0.7981573479198595,5
15.182530421736956,-0.7796551364948695,5
15.192532088681448,-0.7593850695192433,5
15.202533755625938,-0.7256691377320594,5
15.21253542257043,-0.6680191910857296,5
15.222537089514919,-0.6231589954714634,5
15.23253875645941,-0.5332428470736941,5
15.2425404234039,-0.4441877854853971,5
15.252542090348392,-0.3656656833238631,5
15.262543757292883,-0.2532509496562211,5
15.272545424237373,-0.15755082505414095,5
15.282547091181865,-0.06878506127711763,5
15.292548758126355,0.07125520520262753,5
15.302550425070846,0.16037601243953098,5
15.312552092015336,0.26511713704375234,5
15.322553758959828,0.3798595245044998,5
15.332555425904317,0.4661343579029976,5
15.342557092848809,0.5479309713158297,5
15.352558759793299,0.6106225156590002,5
15.36256042673779,0.6767236111461938,5
15.372562093682282,0.712903413963821,5
15.382563760626772,0.7578621989105527,5
15.392565427571263,0.7926272133429612,5
15.402567094515753,0.7852063474332117,5
15.412568761460244,0.7796373266656093,5
15.422570428404734,0.7448332162377693,5
15.432572095349226,0.7184172190044407,5
15.442573762293716,0.7006174457301089,5
15.452575429238207,0.6643302498606477,5
15.462577096182697,0.6120859620271536,5
15.472578763127188,0.5308358014442075,5
15.48258043007168,0.4750165117505578,5
15.49258209701617,0.4222699095989961,5
15.502583763960661,0.35079662441970094,5
15.512585430905151,0.29042251972320127,5
15.522587097849643,0.23462090403873376,5
15.532588764794133,0.21023129942724528,5
15.542590431738624,0.14626504899399445,5
15.552592098683114,0.12209493518078578,5
15.562593765627605,0.07685829977084715,5
15.572595432572095,0.04393734525871027,5
15.582597099516587,0.051869729187684344,5
15.592598766461077,0.008547009499182506,5
15.602600433405568,0.009750419704414672,5
15.61260210035006,0.0037464549035971326,5
15.62260376729455,0.007620715378210604,5
15.632605434239041,0.01251385023553433,5
15.64260710118353,0.008095723433462815,5
15.652608768128022,0.014271840563113045,5
15.662610435072512,-0.004868652934427599,5
15.672612102017004,0.021788932462656813,5
15.682613768961494,-0.013760636502939025,5
15.692615435905985,-0.044802675192125024,5
15.702617102850475,-0.0810956245043158,5
15.712618769794966,-0.09027518279250116,5
15.722620436739458,-0.12684536297076274,5
15.732622103683948,-0.15963368484596094,5
15.74262377062844,-0.2141611121510685,5
15.752625437572929,-0.2717280669372307,5
15.76262710451742,-0.3150487806947199,5
15.77262877146191,-0.390369234491199,5
15.782630438406402,-0.44769576868273964,5
15.792632105350892,-0.4943604148984356,5
15.802633772295383,-0.5750059647424534,5
15.812635439239873,-0.6266045894013005,5
15.822637106184365,-0.680242984478479,5
15.832638773128856,-0.713391108321373,5
15.842640440073346,-0.7443977466758585,5
15.852642107017838,-0.762005270227625,5
15.862643773962327,-0.7711911460150549,5
15.872645440906819,-0.7732702544531525,5
15.882647107851309,-0.7695929230936628,5
15.8926487747958,-0.7634375548731217,5
15.90265044174029,-0.6935834051578331,5
15.912652108684782,-0.6355971058705153,5
15.922653775629271,-0.5829110069293527,5
15.932655442573763,-0.4921441447748074,5
15.942657109518253,-0.41347906563784953,5
15.952658776462744,-0.3031575126805596,5
15.962660443407236,-0.21041471826611455,5
15.972662110351726,-0.09928627478369917,5
15.982663777296217,0.009890904252134292,5
15.992665444240707,0.12536812956123855,5
16.002667111185197,0.2108037950082854,5
16.01266877812969,0.3213374978097799,5
16.02267044507418,0.40768285608666865,5
16.03267211201867,0.4919589374909704,5
16.04267377896316,0.5913883783163522,5
16.052675445907653,0.6417017595360069,5
16.062677112852143,0.7151360236589918,5
16.072678779796632,0.7622196017084493,5
16.082680446741126,0.7505130629998796,5
16.092682113685616,0.7905216600914879,5
16.102683780630105,0.7758733273231224,5
16.112685447574595,0.7740265332279719,5
16.12268711451909,0.7479410915745486,5
16.132688781463578,0.70667019389641,5
16.142690448408068,0.6688666781280461,5
16.152692115352558,0.6081798522572155,5
16.16269378229705,0.5460298891120634,5
16.17269544924154,0.509668602945366,5
16.18269711618603,0.429743058801226,5
16.192698783130524,0.3888901357103765,5
16.202700450075014,0.33674293564944197,5
16.212702117019504,0.26597371555478966,5
16.222703783963993,0.20055039743241232,5
16.232705450908487,0.1409520563280079,5
16.242707117852976,0.12720793241313802,5
16.252708784797466,0.10223054678320667,5
16.262710451741956,0.05366583177617794,5
16.27271211868645,0.03880836688404681,5
16.28271378563094,0.0199307934092559,5
16.29271545257543,0.01193437964355605,5
16.302717119519922,-0.005633106234053248,5
16.312718786464412,0.00803939576724955,5
16.322720453408902,-0.010780440258217226,5
16.33272212035339,-0.0014111090719418453,5
16.342723787297885,0.012069770030212371,5
16.352725454242375,-0.00293956777227081,5
16.362727121186865,-0.02143216710912353,5
16.372728788131354,-0.030070739561009287,5
16.382730455075848,-0.024072314496581516,5
16.392732122020337,-0.05761309221318323,5
16.402733788964827,-0.06791689660578068,5
16.41273545590932,-0.10727314765498597,5
16.42273712285381,-0.15158163960286827,5
16.4327387897983,-0.1933365280060307,5
16.44274045674279,-0.26151769961299937,5
16.452742123687283,-0.2723267192871827,5
16.462743790631773,-0.37708539501518257,5
16.472745457576263,-0.43662528698380354,5
16.482747124520753,-0.4693243898615293,5
16.492748791465246,-0.5324811629747217,5
16.502750458409736,-0.5922163766049832,5
16.512752125354226,-0.6564798780576935,5
16.522753792298715,-0.6961480679713006,5
16.53275545924321,-0.729983737598822,5
16.5427571261877,-0.7577313122615938,5
16.55275879313219,-0.7770887884795581,5
16.56276046007668,-0.7832039546021153,5
16.57276212702117,-0.7790766451975426,5
16.58276379396566,-0.757516234471987,5
16.59276546091015,-0.708669673256517,5
16.602767127854644,-0.6913811592908972,5
16.612768794799134,-0.6036188363841473,5
16.622770461743624,-0.5335855265159076,5
16.632772128688114,-0.43542820777383584,5
16.642773795632607,-0.3459956615071793,5
16.652775462577097,-0.23411427972328347,5
16.662777129521587,-0.13748642562472096,5
16.67277879646608,-0.0606509892731541,5
16.68278046341057,0.03684185554788673,5
16.69278213035506,0.16440762987690793,5
16.70278379729955,0.2618018273420138,5
16.712785464244043,0.3791846163501852,5
16.722787131188532,0.46457074521298014,5
16.732788798133022,0.5517035366010656,5
16.742790465077512,0.616073319978965,5
16.752792132022005,0.681767024067487,5
16.762793798966495,0.7153697976409096,5
16.772795465910985,0.7681790449643977,5
16.782797132855478,0.7829616544836433,5
16.792798799799968,0.7863459952631994,5
16.802800466744458,0.772740022657403,5
16.812802133688947,0.7529764458194121,5
16.82280380063344,0.7316757923026738,5
16.83280546757793,0.6795068755202688,5
16.84280713452242,0.6360370946423457,5
16.85280880146691,0.6028718752053254,5
16.862810468411404,0.520209138014561,5
16.872812135355893,0.4800105536838693,5
16.882813802300383,0.40112095055463015,5
16.892815469244876,0.3526485032094474,5
16.902817136189366,0.29541989880223224,5
16.912818803133856,0.2504602565562648,5
16.922820470078346,0.1889564751107749,5
16.93282213702284,0.1552252683922388,5
16.94282380396733,0.09424954170157723,5
16.95282547091182,0.08711933345422283,5
16.96282713785631,0.06310347938305672,5
16.972828804800802,0.017038260377663893,5
16.98283047174529,0.027464302081812123,5
16.99283213868978,-0.006039064324130511,5
17.002833805634275,0.0035207506643167175,5
17.012835472578764,0.0019426017270925537,5
17.022837139523254,-0.037495105309302036,5
17.032838806467744,-0.008482636175568816,5
17.042840473412237,-0.000691419842006237,5
17.052842140356727,-0.015934079718687728,5
17.062843807301217,-0.005774387654851652,5
17.072845474245707,-0.02757539053003275,5
17.0828471411902,-0.028598657529295343,5
17.09284880813469,-0.06898091723416061,5
17.10285047507918,-0.09087462904533976,5
17.112852142023673,-0.13545341057049776,5
17.122853808968163,-0.1587975572909502,5
17.132855475912653,-0.22776426208725487,5
17.142857142857142,-0.27553480311900214,5
17.152858809801636,-0.3323762335714462,5
17.162860476746125,-0.3699025873788736,5
17.172862143690615,-0.44313627482384244,5
17.182863810635105,-0.502405686813417,5
17.1928654775796,-0.5609682740316266,5
17.202867144524088,-0.6228060273208934,5
17.212868811468578,-0.6818919640764814,5
17.222870478413068,-0.7305631168899326,5
17.23287214535756,-0.7482080598328397,5
17.24287381230205,-0.7699709670022221,5
17.25287547924654,-0.77044719629778,5
17.262877146191034,-0.7802425059876068,5
17.272878813135524,-0.767826044765397,5
17.282880480080014,-0.7292764492595871,5
17.292882147024503,-0.6927497736885274,5
17.302883813968997,-0.6253550411258909,5
17.312885480913486,-0.5735278721072162,5
17.322887147857976,-0.4874177718061495,5
17.332888814802466,-0.413694973739249,5
17.34289048174696,-0.3051221660771053,5
17.35289214869145,-0.2142111180863862,5
17.36289381563594,-0.09635290233748187,5
17.372895482580432,0.0038411738164937917,5
17.382897149524922,0.12009792101198696,5
17.392898816469412,0.215505115294485,5
17.4029004834139,0.3245018138648529,5
17.412902150358395,0.40520271861653373,5
17.422903817302885,0.4952799242006027,5
17.432905484247375,0.5732086247793425,5
17.442907151191864,0.6619309466779344,5
17.452908818136358,0.687625480808589,5
17.462910485080847,0.7377111497208552,5
17.472912152025337,0.7741332885241703,5
17.48291381896983,0.7710427611586642,5
17.49291548591432,0.7843699750365714,5
17.50291715285881,0.7629372533594627,5
17.5129188198033,0.7239161742292008,5
17.522920486747793,0.6899636116727937,5
17.532922153692283,0.681335612442814,5
17.542923820636773,0.6207337766407941,5
17.552925487581263,0.5669483145813344,5
17.562927154525756,0.5045327988907216,5
17.572928821470246,0.44233426115818697,5
17.582930488414735,0.37853595089239195,5
17.59293215535923,0.33362375908832737,5
17.60293382230372,0.2700114373410216,5
17.61293548924821,0.22151328791629396,5
17.622937156192698,0.16816392062017038,5
17.63293882313719,0.12187515837208182,5
17.64294049008168,0.09580888891533682,5
17.65294215702617,0.05173444499894784,5
17.66294382397066,0.05407273717107844,5
17.672945490915154,0.03698108536458201,5
17.682947157859644,-0.0044534464365296265,5
17.692948824804134,-0.005152413700702033,5
17.702950491748627,0.0054848301136588,5
17.712952158693117,0.025237746998032582,5
17.722953825637607,0.011799294517035186,5
17.732955492582096,-0.007685869736698757,5
17.74295715952659,-0.01136890626847929,5
17.75295882647108,-0.013913178055033459,5
17.76296049341557,-0.028160502360155385,5
17.77296216036006,-0.019188426062129584,5
17.782963827304552,-0.06313031105068156,5
17.792965494249042,-0.07724060713542433,5
17.802967161193532,-0.11488533290198026,5
17.812968828138025,-0.14135709538328828,5
17.822970495082515,-0.19128948164403092,5
17.832972162027005,-0.24348205536016718,5
17.842973828971495,-0.292406691500661,5
17.852975495915988,-0.33910259560085687,5
17.862977162860478,-0.4253582993166597,5
17.872978829804968,-0.4891922828157392,5
17.882980496749457,-0.5639226864122072,5
17.89298216369395,-0.6285553974330985,5
17.90298383063844,-0.65178791761261,5
17.91298549758293,-0.6860378584574395,5
17.92298716452742,-0.7230691823925661,5
17.932988831471913,-0.7544787808708385,5
17.942990498416403,-0.7810976433596639,5
17.952992165360893,-0.7724247553848244,5
17.962993832305386,-0.7903490413048397,5
17.972995499249876,-0.7564072328251834,5
17.982997166194366,-0.706637294070321,5
17.992998833138856,-0.6625616701386089,5
18.00300050008335,-0.615748788266773,5
18.01300216702784,-0.5403997316534095,5
18.02300383397233,-0.45394318645407217,5
18.03300550091682,-0.34854408271888393,5
18.04300716786131,-0.25564333376122755,5
18.0530088348058,-0.140222832558767,5
18.06301050175029,-0.04077368248872502,5
18.073012168694785,0.06028568063913595,5
18.083013835639274,0.1606032413661859,5
18.093015502583764,0.27899453457824763,5
18.103017169528254,0.3865338429055487,5
18.113018836472747,0.461477014328447,5
18.123020503417237,0.5463488808788014,5
18.133022170361727,0.6204799707313396,5
18.143023837306217,0.66391720156704,5
18.15302550425071,0.7139038251510053,5
18.1630271711952,0.7742837597245946,5
18.17302883813969,0.7852867450197345,5
18.183030505084183,0.7986585796688386,5
18.193032172028673,0.7644627401447313,5
18.203033838973163,0.7602048273451172,5
18.213035505917652,0.7251814150448265,5
18.223037172862146,0.7015306863705058,5
18.233038839806635,0.6426806454314883,5
18.243040506751125,0.5858261159053014,5
18.253042173695615,0.5415882122518846,5
18.26304384064011,0.461495137758921,5
18.273045507584598,0.40977383680181323,5
18.283047174529088,0.357608805078702,5
18.29304884147358,0.30050759050494397,5
18.30305050841807,0.23002696097722658,5
18.31305217536256,0.18605345043065166,5
18.32305384230705,0.14131833683549708,5
18.333055509251544,0.1145996475402823,5
18.343057176196034,0.07928038386197693,5
18.353058843140523,0.03633378531785624,5
18.363060510085013,0.03175974949488108,5
18.373062177029507,-0.009112293959108193,5
18.383063843973996,-0.012390875017117262,5
18.393065510918486,-0.004759157129936163,5
18.40306717786298,0.01790889510965685,5
18.41306884480747,-0.014807906776332681,5
18.42307051175196,0.0034757435816801944,5
18.43307217869645,0.0025836310677873568,5
18.443073845640942,-0.01909681942279,5
18.453075512585432,-0.024423781152567384,5
18.463077179529922,-0.01001797018862831,5
18.47307884647441,-0.04334730300078906,5
18.483080513418905,-0.06614555405760361,5
18.493082180363395,-0.09018430480588978,5
18.503083847307884,-0.13468700927175195,5
18.513085514252378,-0.15242500954916668,5
18.523087181196868,-0.23415164780360564,5
18.533088848141357,-0.2606032890237563,5
18.543090515085847,-0.3450041296844248,5
18.55309218203034,-0.38054123538522927,5
18.56309384897483,-0.45267136845891975,5
18.57309551591932,-0.5113086644241572,5
18.58309718286381,-0.5959352295570132,5
18.593098849808303,-0.6460576640992669,5
18.603100516752793,-0.6774798377731308,5
18.613102183697283,-0.726595757176369,5
18.623103850641776,-0.7231749706322634,5
18.633105517586266,-0.7714379387499443,5
18.643107184530756,-0.7868212732417257,5
18.653108851475245,-0.7867507319386332,5
18.66311051841974,-0.754100909770232,5
18.67311218536423,-0.7359359093094906,5
18.68311385230872,-0.6709458502370829,5
18.693115519253208,-0.6171357643128879,5
18.7031171861977,-0.5649184011753248,5
18.71311885314219,-0.4759346581208663,5
18.72312052008668,-0.39598808525208384,5
18.73312218703117,-0.3091767741855777,5
18.743123853975664,-0.18902010208965303,5
18.753125520920154,-0.08179828234469148,5
18.763127187864644,0.01188514909771841,5
18.773128854809137,0.14045332668456761,5
18.783130521753627,0.2192537325315472,5
18.793132188698117,0.3379448378248837,5
18.803133855642606,0.4219549943818584,5
18.8131355225871,0.4980546293669244,5
18.82313718953159,0.5898052595379236,5
18.83313885647608,0.6291820657743963,5
18.84314052342057,0.6868402612326947,5
18.853142190365062,0.7580229361575664,5
18.863143857309552,0.7548603417262977,5
18.873145524254042,0.7829254650464862,5
18.883147191198535,0.7912333045265441,5
18.893148858143025,0.7770272971939192,5
18.903150525087515,0.725395947272103,5
18.913152192032005,0.719603387202146,5
18.923153858976498,0.6445829676698506,5
18.933155525920988,0.6429785847173349,5
18.943157192865478,0.5661224007723709,5
18.953158859809967,0.5134722582981355,5
18.96316052675446,0.4473085269293099,5
18.97316219369895,0.3783414333452224,5
18.98316386064344,0.31325921329100237,5
18.993165527587934,0.2692973620070597,5
19.003167194532423,0.20041214192022916,5
19.013168861476913,0.1704937555690259,5
19.023170528421403,0.11533466805648927,5
19.033172195365896,0.09168457628293453,5
19.043173862310386,0.05923177308380524,5
19.053175529254876,0.034608616442327426,5
19.063177196199366,0.025482540006123704,5
19.07317886314386,-0.012935005029885462,5
19.08318053008835,0.009341395627003722,5
19.09318219703284,0.0069306117931205915,5
19.103183863977332,-0.01608960555242638,5
19.11318553092182,0.001868955545618465,5
19.12318719786631,-0.00528878835866068,5
19.1331888648108,-0.010699598634736775,5
19.143190531755295,0.002082298817885452,5
19.153192198699784,-0.022754217343941247,5
19.163193865644274,-0.022716861540255644,5
19.173195532588764,-0.04118908745460975,5
19.183197199533257,-0.0753865489863189,5
19.193198866477747,-0.10789627636305898,5
19.203200533422237,-0.14647086326442463,5
19.21320220036673,-0.20304366441112165,5
19.22320386731122,-0.25807833783850237,5
19.23320553425571,-0.3062120885430887,5
19.2432072012002,-0.354073344344666,5
19.253208868144693,-0.4280926264237419,5
19.263210535089183,-0.4842541070200568,5
19.273212202033672,-0.5556107960602616,5
19.283213868978162,-0.6050327714807724,5
19.293215535922656,-0.6483679860811893,5
19.303217202867145,-0.6728489799307893,5
19.313218869811635,-0.723682845120341,5
19.32322053675613,-0.756637026565954,5
19.33322220370062,-0.7988781560102381,5
19.343223870645108,-0.78318209080877,5
19.353225537589598,-0.7652099335752203,5
19.36322720453409,-0.7369681626766916,5
19.37322887147858,-0.7156874554950333,5
19.38323053842307,-0.6510084183416156,5
19.39323220536756,-0.6010675944061569,5
19.403233872312054,-0.5225697504922773,5
19.413235539256544,-0.43355971869024834,5
19.423237206201033,-0.3282355888495853,5
19.433238873145523,-0.26530992441144535,5
19.443240540090017,-0.14799337525649522,5
19.453242207034506,-0.019798786852469316,5
19.463243873978996,0.07072422336604388,5
19.47324554092349,0.17641482517871088,5
19.48324720786798,0.28185466611525056,5
19.49324887481247,0.40073958944247945,5
19.50325054175696,0.4829058486490077,5
19.513252208701452,0.5700508837873811,5
19.523253875645942,0.6147516312497311,5
19.53325554259043,0.6667087733781302,5
19.54325720953492,0.7183803868408404,5
19.553258876479415,0.775732087693034,5
19.563260543423905,0.7711426445187128,5
19.573262210368394,0.7685938680872049,5
19.583263877312888,0.7766066889847816,5
19.593265544257378,0.7717354831725939,5
19.603267211201867,0.7133716672422757,5
19.613268878146357,0.6811027292459892,5
19.62327054509085,0.6225036678158076,5
19.63327221203534,0.5763497113129522,5
19.64327387897983,0.5248435991559752,5
19.65327554592432,0.4691488513460152,5
19.663277212868813,0.4067795304275729,5
19.673278879813303,0.3476011779060895,5
19.683280546757793,0.2930425088306574,5
19.693282213702286,0.2233336283384563,5
19.703283880646776,0.1768550402527207,5
19.713285547591266,0.13873251986529195,5
19.723287214535755,0.09771359352922653,5
19.73328888148025,0.08295775805376664,5
19.74329054842474,0.04636400197405078,5
19.75329221536923,0.028663657088796108,5
19.763293882313718,0.015562043156418657,5
19.77329554925821,0.015203258221475797,5
19.7832972162027,-0.004884552857294601,5
19.79329888314719,0.0020505567239227154,5
19.803300550091684,-0.006054071201095985,5
19.813302217036174,-0.003600817041209073,5
19.823303883980664,-0.01601002914384382,5
19.833305550925154,0.0006007467979571059,5
19.843307217869647,-0.03216661346431446,5
19.853308884814137,-0.021935230410584112,5
19.863310551758627,-0.047686332225236945,5
19.873312218703116,-0.06767092447496131,5
19.88331388564761,-0.09493683335120297,5
19.8933155525921,-0.1377473400722602,5
19.90331721953659,-0.18930328293037232,5
19.913318886481083,-0.20134964300955033,5
19.923320553425572,-0.2735208690372284,5
19.933322220370062,-0.3308233024841452,5
19.943323887314552,-0.39060040658203904,5
19.953325554259045,-0.44105008884534025,5
19.963327221203535,-0.5316006745754578,5
19.973328888148025,-0.5846577280241142,5
19.983330555092515,-0.6224846987979945,5
19.993332222037008,-0.6810033809440726,5
20.003333888981498,-0.7284113529363307,5
20.013335555925988,-0.7548611850112921,5
20.02333722287048,-0.779667035542573,5
20.03333888981497,-0.7833352628003343,5
20.04334055675946,-0.7773905473103232,5
20.05334222370395,-0.7687785543473361,5
20.063343890648444,-0.717434296257992,5
20.073345557592933,-0.6909631581561807,5
20.083347224537423,-0.6318032417962111,5
20.093348891481913,-0.553597925039408,5
20.103350558426406,-0.4717150523093266,5
20.113352225370896,-0.3948978253079216,5
20.123353892315386,-0.30521716845820035,5
20.133355559259876,-0.19712024783855253,5
20.14335722620437,-0.09193830173610819,5
20.15335889314886,0.016219109145660188,5
20.16336056009335,0.11762399665747283,5
20.173362227037842,0.24575975279362394,5
20.18336389398233,0.3372804971340013,5
20.19336556092682,0.45370243177380165,5
20.20336722787131,0.5141550813005008,5
20.213368894815805,0.5920346762564734,5
20.223370561760294,0.6583577786717517,5
20.233372228704784,0.6988973272485196,5
20.243373895649274,0.7451056455900795,5
20.253375562593767,0.7583055065819645,5
20.263377229538257,0.8002859439678577,5
20.273378896482747,0.7781333520403215,5
20.28338056342724,0.7755768439506959,5
20.29338223037173,0.7323268486633742,5
20.30338389731622,0.709648747193112,5
20.31338556426071,0.677803820389983,5
20.323387231205203,0.6077121801500184,5
20.333388898149693,0.5596656500897575,5
20.343390565094182,0.4767137621817257,5
20.353392232038672,0.4308147058468189,5
20.363393898983166,0.3817664361806217,5
20.373395565927655,0.33621131015680117,5
20.383397232872145,0.27815502111296503,5
20.39339889981664,0.19172117198097313,5
20.40340056676113,0.1590213089442163,5
20.413402233705618,0.10164486635050551,5
20.423403900650108,0.10226761178967539,5
20.4334055675946,0.053343633609114545,5
20.44340723453909,0.03386160214614759,5
20.45340890148358,0.029191280109938454,5
20.46341056842807,0.0068912027997669895,5
20.473412235372564,-0.002896660686753448,5
20.483413902317054,-0.0077459619310206364,5
20.493415569261543,-0.0011636320701214427,5
20.503417236206037,0.013440954590771633,5
20.513418903150527,0.005521602966846579,5
20.523420570095016,-0.012544563587722475,5
20.533422237039506,-0.01284383876387225,5
20.543423903984,-0.0014869803148289708,5
20.55342557092849,-0.038289640060716154,5
20.56342723787298,-0.0351985174353136,5
20.57342890481747,-0.08609282826287752,5
20.583430571761962,-0.11668873464468665,5
20.593432238706452,-0.15378652260587933,5
20.60343390565094,-0.21400670944526637,5
20.613435572595435,-0.23975247797448365,5
20.623437239539925,-0.2969265537671528,5
20.633438906484415,-0.3545621869692658,5
20.643440573428904,-0.4328979693131935,5
20.653442240373398,-0.4901179182649388,5
20.663443907317887,-0.5290079016941613,5
20.673445574262377,-0.5949644518951084,5
20.683447241206867,-0.6557459174066076,5
20.69344890815136,-0.7124106427980412,5
20.70345057509585,-0.7427525734198538,5
20.71345224204034,-0.7494225975390642,5
20.723453908984833,-0.7771495156293466,5
20.733455575929323,-0.7732491141357478,5
20.743457242873813,-0.7586185381666377,5
20.753458909818303,-0.7565711477488899,5
20.763460576762796,-0.7130282498376829,5
20.773462243707286,-0.6731234969488196,5
20.783463910651776,-0.6015093480934268,5
20.793465577596265,-0.521450107400492,5
20.80346724454076,-0.44326505950695694,5
20.81346891148525,-0.3549790168725193,5
20.82347057842974,-0.23592773343300055,5
20.83347224537423,-0.1327725106638398,5
20.84347391231872,-0.04384424923216125,5
20.85347557926321,0.08177918124495323,5
20.8634772462077,0.18762686055552616,5
20.873478913152194,0.2914056062421668,5
20.883480580096684,0.39240576912801317,5
20.893482247041174,0.47856398048714854,5
20.903483913985664,0.5490975789080453,5
20.913485580930157,0.6315816554427164,5
20.923487247874647,0.6720634363222451,5
20.933488914819137,0.7135166085090859,5
20.943490581763626,0.7580334023089677,5
20.95349224870812,0.7714240896247972,5
20.96349391565261,0.7955825962481825,5
20.9734955825971,0.7585258569602777,5
20.983497249541593,0.7589212412541176,5
20.993498916486082,0.7432952786067215,5
21.003500583430572,0.6869589318666542,5
21.013502250375062,0.644433995649264,5
21.023503917319555,0.5678527332024048,5
21.033505584264045,0.512912899487393,5
21.043507251208535,0.4754643969264303,5
21.053508918153025,0.39531996867370417,5
21.063510585097518,0.3352135826592977,5
21.073512252042008,0.2953520635730309,5
21.083513918986498,0.23176109338505,5
21.09351558593099,0.17778790909757033,5
21.10351725287548,0.11753666484290565,5
21.11351891981997,0.09474483399130965,5
21.12352058676446,0.06296683064441293,5
21.133522253708954,0.02960684869649457,5
21.143523920653443,0.03793508166502997,5
21.153525587597933,0.01651993097507322,5
21.163527254542423,-0.008407015072095878,5
21.173528921486916,0.010993351576040929,5
21.183530588431406,0.0012298238074886756,5
21.193532255375896,-0.008746704527179721,5
21.20353392232039,-0.00024723173109254197,5
21.21353558926488,0.011785671008143102,5
21.22353725620937,0.0005800834781648986,5
21.23353892315386,-0.024991541049260352,5
21.243540590098352,-0.022371148398396202,5
21.25354225704284,-0.05431005955383676,5
21.26354392398733,-0.06987704929939391,5
21.27354559093182,-0.10039648104821124,5
21.283547257876315,-0.14778575406286412,5
21.293548924820804,-0.18146156811182892,5
21.303550591765294,-0.22231464576990184,5
21.313552258709787,-0.3031344374028487,5
21.323553925654277,-0.33951040794272924,5
21.333555592598767,-0.3972299582796515,5
21.343557259543257,-0.4705957356008174,5
21.35355892648775,-0.4980614380021117,5
21.36356059343224,-0.5804131903765848,5
21.37356226037673,-0.6322252805081519,5
21.38356392732122,-0.6821607638142957,5
21.393565594265713,-0.7133229482983598,5
21.403567261210203,-0.7514681050632068,5
21.413568928154692,-0.7730429606734172,5
21.423570595099186,-0.8025116123360971,5
21.433572262043675,-0.783239018514467,5
21.443573928988165,-0.7880447296802704,5
21.453575595932655,-0.7032463964427906,5
21.46357726287715,-0.6695408812773332,5
21.473578929821638,-0.6406991823619252,5
21.483580596766128,-0.5526932865246067,5
21.493582263710618,-0.49186117109207705,5
21.50358393065511,-0.39266292041471146,5
21.5135855975996,-0.2971265816410205,5
21.52358726454409,-0.1883219040922764,5
21.533588931488584,-0.07808937978607389,5
21.543590598433074,0.03861673649906062,5
21.553592265377564,0.132854218256589,5
21.563593932322053,0.2307793459438962,5
21.573595599266547,0.33890559409062,5
21.583597266211036,0.41138768892554217,5
21.593598933155526,0.5142663856687278,5
21.603600600100016,0.5960048268440906,5
21.61360226704451,0.6526096763416406,5
21.623603933989,0.697724226195595,5
21.63360560093349,0.7553984336328523,5
21.64360726787798,0.7604844849114997,5
21.653608934822472,0.7611668839919018,5
21.663610601766962,0.7696568500655617,5
21.67361226871145,0.7594412732356739,5
21.683613935655945,0.7305693255879517,5
21.693615602600435,0.7046458471057542,5
21.703617269544925,0.64417115053948,5
21.713618936489414,0.6106439205807939,5
21.723620603433908,0.5460939109274385,5
21.733622270378397,0.4876795993973435,5
21.743623937322887,0.4380968127054612,5
21.753625604267377,0.373579133886105,5
21.76362727121187,0.31070057886799557,5
21.77362893815636,0.24792400397697306,5
21.78363060510085,0.21981118558155882,5
21.793632272045343,0.13349360881198546,5
21.803633938989833,0.12245187821999927,5
21.813635605934323,0.06563869988674381,5
21.823637272878813,0.05206607668828099,5
21.833638939823306,0.03396152541005459,5
21.843640606767796,0.002720766542490937,5
21.853642273712286,0.01247515126831232,5
21.863643940656775,0.010422144281686151,5
21.87364560760127,0.011468664949571196,5
21.88364727454576,-0.0020032756970308255,5
21.893648941490248,-0.0018812584280733667,5
21.90365060843474,0.0037898025345174694,5
21.91365227537923,0.0022837291437561554,5
21.92365394232372,-0.02899269811439703,5
21.93365560926821,-0.021001079607707307,5
21.943657276212704,-0.023576868282279104,5
21.953658943157194,-0.06448932027432085,5
21.963660610101684,-0.07458601649669219,5
21.973662277046174,-0.12845406864830186,5
21.983663943990667,-0.16055487724303225,5
21.993665610935157,-0.21095996279855406,5
22.003667277879646,-0.25270544790805344,5
22.01366894482414,-0.309962295261025,5
22.02367061176863,-0.37089074983831427,5
22.03367227871312,-0.436741354094737,5
22.04367394565761,-0.48175561647591264,5
22.053675612602103,-0.5573201863490078,5
22.063677279546592,-0.6001074680965014,5
22.073678946491082,-0.6453945595083826,5
22.083680613435572,-0.6902232848583224,5
22.093682280380065,-0.7349914263987088,5
22.103683947324555,-0.7807572301164102,5
22.113685614269045,-0.7668674255798793,5
22.123687281213538,-0.7879072228876152,5
22.133688948158028,-0.7708425680583423,5
22.143690615102518,-0.7093214048384232,5
22.153692282047007,-0.7097833738391596,5
22.1636939489915,-0.6473307426222992,5
22.17369561593599,-0.5841942220924856,5
22.18369728288048,-0.5047118004733264,5
22.19369894982497,-0.4420304495660589,5
22.203700616769463,-0.3357938195841807,5
22.213702283713953,-0.24140126027467013,5
22.223703950658443,-0.1544811505696756,5
22.233705617602936,-0.01660823834407586,5
22.243707284547426,0.10021624130401341,5
22.253708951491916,0.19065851377273746,5
22.263710618436406,0.3054867931833916,5
22.2737122853809,0.37385003870589245,5
22.28371395232539,0.49192396617021733,5
22.29371561926988,0.5469354364794077,5
22.30371728621437,0.6206698507369096,5
22.313718953158862,0.6916135177253633,5
22.32372062010335,0.7276849086113962,5
22.33372228704784,0.7667375400439954,5
22.34372395399233,0.7847326200870292,5
22.353725620936824,0.7877100928414413,5
22.363727287881314,0.7804459653786103,5
22.373728954825804,0.7503021913427689,5
22.383730621770297,0.7246237353908965,5
22.393732288714787,0.6766970185858494,5
22.403733955659277,0.6345945214570605,5
22.413735622603767,0.5676677021341751,5
22.42373728954826,0.5297697168903249,5
22.43373895649275,0.4527512952580702,5
22.44374062343724,0.37875458416831786,5
22.45374229038173,0.3454505822322078,5
22.463743957326223,0.28279794741968367,5
22.473745624270713,0.2263560005450203,5
22.483747291215202,0.182991489800911,5
22.493748958159696,0.13464673916006153,5
22.503750625104185,0.09825800735983774,5
22.513752292048675,0.0835174979824396,5
22.523753958993165,0.04258901584703678,5
22.53375562593766,0.03275488017894644,5
22.543757292882148,0.029775554500001005,5
22.553758959826638,-0.0019022449176973738,5
22.563760626771128,0.0003445334031624257,5
22.57376229371562,-0.008862676096133825,5
22.58376396066011,0.006723653554625018,5
22.5937656276046,-0.013981316129457478,5
22.603767294549094,0.004192615033644328,5
22.613768961493584,-0.008024494169876398,5
22.623770628438074,-0.015118106730355975,5
22.633772295382563,-0.02602651135709646,5
22.643773962327057,-0.04891756002562814,5
22.653775629271546,-0.0664551792077312,5
22.663777296216036,-0.09306053652174898,5
22.673778963160526,-0.13750530147180684,5
22.68378063010502,-0.1811737681727906,5
22.69378229704951,-0.2415915751641771,5
22.703783963994,-0.30273233813680395,5
22.713785630938492,-0.3445613478598452,5
22.723787297882982,-0.39703396825077447,5
22.733788964827472,-0.4737598104334012,5
22.74379063177196,-0.5402608828857691,5
22.753792298716455,-0.5585677021240953,5
22.763793965660945,-0.6257693901551392,5
22.773795632605434,-0.6996821950260056,5
22.783797299549924,-0.7337199815965063,5
22.793798966494418,-0.764141303107913,5
22.803800633438907,-0.7677539665194894,5
22.813802300383397,-0.7730856131793344,5
22.82380396732789,-0.7615609159885613,5
22.83380563427238,-0.7568937262875116,5
22.84380730121687,-0.7298453523012369,5
22.85380896816136,-0.6608674217490546,5
22.863810635105853,-0.635101039320409,5
22.873812302050343,-0.5579549878680113,5
22.883813968994833,-0.48350869073134584,5
22.893815635939323,-0.3737223724804326,5
22.903817302883816,-0.2898957413111566,5
22.913818969828306,-0.18579680559983022,5
22.923820636772795,-0.07824085310802845,5
22.93382230371729,0.014077503709855044,5
22.94382397066178,0.13822633362104966,5
22.95382563760627,0.24016148055974448,5
22.963827304550758,0.3438028098930116,5
22.97382897149525,0.43208006762602524,5
22.98383063843974,0.5272425216102663,5
22.99383230538423,0.5877557131785613,5
23.00383397232872,0.6402311229520058,5
23.013835639273214,0.7107535294248559,5
23.023837306217704,0.7488943909577,5
23.033838973162194,0.7546995378669983,5
23.043840640106687,0.7911765781158486,5
23.053842307051177,0.787843125317831,5
23.063843973995667,0.7662423232348692,5
23.073845640940156,0.7176825236653092,5
23.08384730788465,0.6953731300127584,5
23.09384897482914,0.6762730612312672,5
23.10385064177363,0.6041192721981097,5
23.11385230871812,0.548533889200319,5
23.123853975662612,0.4946472537020037,5
23.133855642607102,0.4140950814549586,5
23.143857309551592,0.37155494329067745,5
23.153858976496082,0.3123566091081381,5
23.163860643440575,0.26139630732524893,5
23.173862310385065,0.1975745875044271,5
23.183863977329555,0.16900450002034073,5
23.193865644274048,0.12911437231638537,5
23.203867311218538,0.08550385239580499,5
23.213868978163028,0.04464206731248429,5
23.223870645107517,0.0541620765331442,5
23.23387231205201,0.023975305831912676,5
23.2438739789965,-0.002466106541966634,5
23.25387564594099,-0.023969764186038762,5
23.26387731288548,0.01588811461466848,5
23.273878979829973,-0.001023490892960007,5
23.283880646774463,-0.007559850521249192,5
23.293882313718953,-0.013899685868977727,5
23.303883980663446,-0.026210043858632723,5
23.313885647607936,-0.0002633032540687325,5
23.323887314552426,-0.007116808470679475,5
23.333888981496916,-0.030240608414522707,5
23.34389064844141,-0.05844193765614026,5
23.3538923153859,-0.0878735264267112,5
23.36389398233039,-0.11259935634608617,5
23.37389564927488,-0.1517865244867213,5
23.38389731621937,-0.20378549518870656,5
23.39389898316386,-0.26700198734115055,5
23.40390065010835,-0.3091481798227489,5
23.413902317052845,-0.3855345401682391,5
23.423903983997334,-0.440708309464499,5
23.433905650941824,-0.49922754869504093,5
23.443907317886314,-0.5391626807294648,5
23.453908984830807,-0.6113069392581352,5
23.463910651775297,-0.673493211712583,5
23.473912318719787,-0.7054404537985901,5
23.483913985664277,-0.7172060941527948,5
23.49391565260877,-0.7467398185170107,5
23.50391731955326,-0.772248259983487,5
23.51391898649775,-0.768035293833098,5
23.523920653442243,-0.7423726584539643,5
23.533922320386733,-0.7361880665188721,5
23.543923987331222,-0.7062433109738139,5
23.553925654275712,-0.6549241678359267,5
23.563927321220206,-0.5976229851539558,5
23.573928988164695,-0.513884917697545,5
23.583930655109185,-0.4283970348030678,5
23.593932322053675,-0.3406321482290042,5
23.60393398899817,-0.23378942829767702,5
23.613935655942658,-0.1345371369464167,5
23.623937322887148,-0.021402118642964905,5
23.63393898983164,0.09046639928759868,5
23.64394065677613,0.17327225155197973,5
23.65394232372062,0.29685367623842973,5
23.66394399066511,0.40083274555829196,5
23.673945657609604,0.47929967303628834,5
23.683947324554094,0.5656770541939671,5
23.693948991498583,0.6019876945288036,5
23.703950658443073,0.6872272793579969,5
23.713952325387567,0.7395923787246726,5
23.723953992332056,0.7383200410826588,5
23.733955659276546,0.7904758049740961,5
23.74395732622104,0.7844208775377606,5
23.75395899316553,0.771710157183938,5
23.76396066011002,0.7581804162134615,5
23.77396232705451,0.7110887286296036,5
23.783963993999002,0.665702840727512,5
23.793965660943492,0.6260070885733836,5
23.80396732788798,0.6027646456617277,5
23.81396899483247,0.5203948438824576,5
23.823970661776965,0.460456736920553,5
23.833972328721455,0.40226448825426836,5
23.843973995665944,0.324419403799372,5
23.853975662610434,0.2917136242675445,5
23.863977329554928,0.21896851406394105,5
23.873978996499417,0.16400874189061115,5
23.883980663443907,0.12891150878901675,5
23.8939823303884,0.10870328841453607,5
23.90398399733289,0.07328910335336825,5
23.91398566427738,0.03708414383042157,5
23.92398733122187,0.03216689634429079,5
23.933988998166363,0.021943910123193897,5
23.943990665110853,0.012204375815815198,5
23.953992332055343,0.011088635138166592,5
23.963993998999833,-0.0072111186951508005,5
23.973995665944326,-0.01732814295075119,5
23.983997332888816,0.01826818219909618,5
23.993998999833305,-0.00454323490555579,5
24.0040006667778,0.007225512764473542,5
24.01400233372229,-0.0009564675632560433,5
24.02400400066678,-0.024784687208812967,5
24.034005667611268,-0.0356992757120172,5
24.04400733455576,-0.06843166886899832,5
24.05400900150025,-0.11104939033214345,5
24.06401066844474,-0.13054045237553122,5
24.07401233538923,-0.18756531940728371,5
24.084014002333724,-0.228828828064499,5
24.094015669278214,-0.2955209807097245,5
24.104017336222704,-0.3497114714512808,5
24.114019003167197,-0.409241734837256,5
24.124020670111687,-0.4705516611895841,5
24.134022337056177,-0.5265122684950473,5
24.144024004000666,-0.5864598686161808,5
24.15402567094516,-0.6307287171022451,5
24.16402733788965,-0.6804743555002101,5
24.17402900483414,-0.7204887176170243,5
24.18403067177863,-0.7526283403301516,5
24.194032338723122,-0.7851611275429299,5
24.204034005667612,-0.7769297752332486,5
24.214035672612102,-0.7749886935174741,5
24.224037339556595,-0.7503112865359499,5
24.234039006501085,-0.7209202543283746,5
24.244040673445575,-0.6717347461407618,5
24.254042340390065,-0.6288578230984153,5
24.264044007334558,-0.5587605799990868,5
24.274045674279048,-0.4667006629834336,5
24.284047341223538,-0.4034256631491389,5
24.294049008168027,-0.28989487675668574,5
24.30405067511252,-0.1732596420598489,5
24.31405234205701,-0.07116198090653356,5
24.3240540090015,0.025931902182302912,5
24.334055675945994,0.13343535938176457,5
24.344057342890483,0.2556446869272602,5
24.354059009834973,0.36740660143121495,5
24.364060676779463,0.44488027227286164,5
24.374062343723956,0.5136909632705913,5
24.384064010668446,0.5845504140902743,5
24.394065677612936,0.6578170178210637,5
24.404067344557426,0.7063187591692426,5
24.41406901150192,0.7482242140064561,5
24.42407067844641,0.7774296192538537,5
24.4340723453909,0.775328222688116,5
24.444074012335392,0.7768470439519304,5
24.45407567927988,0.7607234426867544,5
24.46407734622437,0.7484397828149923,5
24.47407901316886,0.6878018480937294,5
24.484080680113355,0.6453172315917737,5
24.494082347057844,0.6117492390764206,5
24.504084014002334,0.5449698120832673,5
24.514085680946824,0.48854468613981383,5
24.524087347891317,0.4313042403886702,5
24.534089014835807,0.36621007441565323,5
24.544090681780297,0.2949102576130202,5
24.554092348724787,0.24182841048854814,5
24.56409401566928,0.18748135281477216,5
24.57409568261377,0.17634804752710315,5
24.58409734955826,0.09191665046368422,5
24.594099016502753,0.07983239335831045,5
24.604100683447243,0.043874073100791236,5
24.614102350391732,0.0270746859841905,5
24.624104017336222,0.007433700632698081,5
24.634105684280716,0.009252266882819488,5
24.644107351225205,0.020705978720383038,5
24.654109018169695,0.006934964883233113,5
24.664110685114185,0.0013407649670472894,5
24.67411235205868,0.0021090187075424945,5
24.684114019003168,-0.0025158513545021394,5
24.694115685947658,-0.006321828467761553,5
24.70411735289215,-0.02992966245804774,5
24.71411901983664,-0.03279909975500679,5
24.72412068678113,-0.04641038130280158,5
24.73412235372562,-0.048243767532115484,5
24.744124020670114,-0.0844186062542438,5
24.754125687614604,-0.12179675730833106,5
24.764127354559093,-0.1500226928100201,5
24.774129021503583,-0.20668112426139976,5
24.784130688448077,-0.2708420426485703,5
24.794132355392566,-0.30935424355875496,5
24.804134022337056,-0.3694468006597116,5
24.81413568928155,-0.4332092991353425,5
24.82413735622604,-0.49276898586918216,5
24.83413902317053,-0.5526509435342817,5
24.84414069011502,-0.6137329836951101,5
24.854142357059512,-0.6605248693040957,5
24.864144024004002,-0.7103224843769425,5
24.87414569094849,-0.7158872861065434,5
24.88414735789298,-0.7602289354779999,5
24.894149024837475,-0.7794948263098262,5
24.904150691781965,-0.7750368442026094,5
24.914152358726454,-0.7573372851401365,5
24.924154025670948,-0.7575594779220081,5
24.934155692615438,-0.7188856949149682,5
24.944157359559927,-0.64205781727671,5
24.954159026504417,-0.5795978892395109,5
24.96416069344891,-0.5142378870987819,5
24.9741623603934,-0.42895924682838915,5
24.98416402733789,-0.3219147395329767,5
24.99416569428238,-0.22668754191088927,5
25.004167361226873,-0.14297302835825731,5
25.014169028171363,-0.03470388882472085,5
25.024170695115853,0.09737499867381808,5
25.034172362060346,0.20479694860083877,5
25.044174029004836,0.3016970857209389,5
25.054175695949326,0.40838866914614275,5
25.064177362893815,0.49284517323029464,5
25.07417902983831,0.5778040847175747,5
25.0841806967828,0.6220925107890326,5
25.09418236372729,0.6811397418583258,5
25.104184030671778,0.7097313343779134,5
25.11418569761627,0.7634278979165298,5
25.12418736456076,0.7986096005702741,5
25.13418903150525,0.7928425716741868,5
25.144190698449744,0.7633878431929855,5
25.154192365394234,0.7294080961065114,5
25.164194032338724,0.718270915118975,5
25.174195699283214,0.6801992295613722,5
25.184197366227707,0.6070729548725269,5
25.194199033172197,0.5808929861715969,5
25.204200700116687,0.5153076776572397,5
25.214202367061176,0.4504178819149584,5
25.22420403400567,0.39437219502632537,5
25.23420570095016,0.34172757668951576,5
25.24420736789465,0.29134419543621887,5
25.25420903483914,0.23145617588692305,5
25.264210701783632,0.18486149432249316,5
25.274212368728122,0.13967962336704448,5
25.284214035672612,0.11286178044463129,5
25.294215702617105,0.07088052887236308,5
25.304217369561595,0.035315155417967994,5
25.314219036506085,0.027336455869533642,5
25.324220703450575,0.024757827452573086,5
25.334222370395068,-0.0010005500499189485,5
25.344224037339558,-0.01128824825104536,5
25.354225704284048,0.0060922388127145725,5
25.364227371228537,0.0004289714739094143,5
25.37422903817303,0.002280002627414693,5
25.38423070511752,-0.02362222243887591,5
25.39423237206201,0.0057861372546717735,5
25.404234039006504,-0.01588395418515642,5
25.414235705950993,-0.012651570248359278,5
25.424237372895483,-0.05226054316298037,5
25.434239039839973,-0.08008656074297685,5
25.444240706784466,-0.11970540435730201,5
25.454242373728956,-0.13417444150890567,5
25.464244040673446,-0.1894726222086101,5
25.474245707617936,-0.2402883932461132,5
25.48424737456243,-0.2895837385407278,5
25.49424904150692,-0.3395171208765262,5
25.50425070845141,-0.4152758169665348,5
25.514252375395902,-0.4844332032031011,5
25.52425404234039,-0.5270893547583608,5
25.53425570928488,-0.5881879896817463,5
25.54425737622937,-0.6489536052139173,5
25.554259043173865,-0.7023599315768283,5
25.564260710118354,-0.7196946371477042,5
25.574262377062844,-0.7397847467041496,5
25.584264044007334,-0.7688857746902414,5
25.594265710951827,-0.7841859947734605,5
25.604267377896317,-0.7969910496123529,5
25.614269044840807,-0.7656725292045656,5
25.6242707117853,-0.7102512069012372,5
25.63427237872979,-0.6665407504061486,5
25.64427404567428,-0.6165785620373098,5
25.65427571261877,-0.5433402401958662,5
25.664277379563263,-0.4629616870307549,5
25.674279046507753,-0.39777622135632656,5
25.684280713452242,-0.27687001161649344,5
25.694282380396732,-0.1873175114333579,5
25.704284047341226,-0.05140679984465936,5
25.714285714285715,0.05032971135243377,5
25.724287381230205,0.15208768551866733,5
25.7342890481747,0.24735750742293847,5
25.744290715119188,0.3692224171907826,5
25.754292382063678,0.44457766789476877,5
25.764294049008168,0.53070353356377,5
25.77429571595266,0.6047733783488428,5
25.78429738289715,0.656732563964361,5
25.79429904984164,0.7110987036674772,5
25.80430071678613,0.7216022420201942,5
25.814302383730624,0.7784635165959073,5
25.824304050675114,0.7696512457122376,5
25.834305717619603,0.7756216767520411,5
25.844307384564097,0.7608488879262845,5
25.854309051508586,0.7504711338820971,5
25.864310718453076,0.6855204811760276,5
25.874312385397566,0.6490671719492928,5
25.88431405234206,0.5946017951992781,5
25.89431571928655,0.5342668389696629,5
25.90431738623104,0.48665992340752023,5
25.91431905317553,0.4285044454607314,5
25.924320720120022,0.3751553154469086,5
25.934322387064512,0.2997902054530781,5
25.944324054009,0.27328407458277637,5
25.954325720953495,0.18622847598704373,5
25.964327387897985,0.16007407424008632,5
25.974329054842475,0.1159258196553038,5
25.984330721786964,0.08438020204816483,5
25.994332388731458,0.060492696578411664,5
26.004334055675947,0.03191508692118123,5
26.014335722620437,0.023068875688114766,5
26.024337389564927,0.011912678417394455,5
26.03433905650942,0.011256498821821864,5
26.04434072345391,0.00230408056713104,5
26.0543423903984,0.007203058215987625,5
26.06434405734289,0.0040388220637038305,5
26.074345724287383,-0.0023079907907998264,5
26.084347391231873,-0.00163783557363913,5
26.094349058176363,-0.02151175221328444,5
26.104350725120856,-0.008636570311279249,5
26.114352392065346,-0.04049975129138593,5
26.124354059009836,-0.05073810679456309,5
26.134355725954325,-0.07934802063095422,5
26.14435739289882,-0.12322725268555497,5
26.15435905984331,-0.1806811334466965,5
26.1643607267878,-0.20018930897450185,5
26.174362393732288,-0.2654922256671115,5
26.18436406067678,-0.31716335618076347,5
26.19436572762127,-0.38722920669954797,5
26.20436739456576,-0.43028733228141414,5
26.214369061510254,-0.48443090843453507,5
26.224370728454744,-0.5388473661639971,5
26.234372395399234,-0.6213106387624114,5
26.244374062343724,-0.6499129002328282,5
26.254375729288217,-0.7163080531115679,5
26.264377396232707,-0.7409624266965409,5
26.274379063177197,-0.764352902758549,5
26.284380730121686,-0.7766955658134203,5
26.29438239706618,-0.7834045761506425,5
26.30438406401067,-0.76632247242423,5
26.31438573095516,-0.7358714664201808,5
26.324387397899653,-0.7037586581303792,5
26.334389064844142,-0.6425738643473153,5
26.344390731788632,-0.5910577369752497,5
26.354392398733122,-0.4879341510623756,5
26.364394065677615,-0.4248860945489661,5
26.374395732622105,-0.33964344411846364,5
26.384397399566595,-0.20587115349923346,5
26.394399066511085,-0.126435391836424,5
26.404400733455578,-0.010013851426830547,5
26.414402400400068,0.10237497598639472,5
26.424404067344557,0.21403266057752415,5
26.43440573428905,0.3176868905841254,5
26.44440740123354,0.38610238234919414,5
26.45440906817803,0.4869568239861273,5
26.46441073512252,0.574385627047094,5
26.474412402067014,0.6375827609980876,5
26.484414069011503,0.6894127017971385,5
26.494415735955993,0.7261052098141412,5
26.504417402900483,0.7581898615860215,5
26.514419069844976,0.7682456645997089,5
26.524420736789466,0.7771175626784553,5
26.534422403733956,0.779333870739666,5
26.54442407067845,0.7328517220945306,5
26.55442573762294,0.6976231450596856,5
26.56442740456743,0.6761847146676565,5
26.57442907151192,0.6402159685401616,5
26.584430738456412,0.5597169296996972,5
26.5944324054009,0.4929752096068331,5
26.60443407234539,0.4523929690485855,5
26.61443573928988,0.38009437322797057,5
26.624437406234374,0.3467496786383465,5
26.634439073178864,0.27165864150729496,5
26.644440740123354,0.2164180229954253,5
26.654442407067847,0.1717337819179591,5
26.664444074012337,0.11725913369088525,5
26.674445740956827,0.09283716914156213,5
26.684447407901317,0.060497881857553316,5
26.69444907484581,0.02381550559395661,5
26.7044507417903,0.017634504397390265,5
26.71445240873479,0.019826328319663612,5
26.72445407567928,0.007790336821875557,5
26.734455742623773,-0.005775715300065983,5
26.744457409568263,-0.0021752210313068176,5
26.754459076512752,0.0022640140631037197,5
26.764460743457242,0.01541803489522189,5
26.774462410401735,-0.014636891405881394,5
26.784464077346225,-0.0025276952259271675,5
26.794465744290715,-0.012624407528567163,5
26.80446741123521,-0.040084670166895056,5
26.814469078179698,-0.03879965845115347,5
26.824470745124188,-0.08171473203119428,5
26.834472412068678,-0.10029813109446672,5
26.84447407901317,-0.1478588494903027,5
26.85447574595766,-0.17659797427520826,5
26.86447741290215,-0.24018051768936538,5
26.87447907984664,-0.3014442207754835,5
26.884480746791134,-0.3652059395297318,5
26.894482413735624,-0.42697281090662204,5
26.904484080680113,-0.4715481017244045,5
26.914485747624607,-0.5199855581244651,5
26.924487414569096,-0.5895058992348969,5
26.934489081513586,-0.6494425616256989,5
26.944490748458076,-0.6713618145919932,5
26.95449241540257,-0.7387548922229452,5
26.96449408234706,-0.7450967617859137,5
26.97449574929155,-0.7773818662051114,5
26.98449741623604,-0.7739378248562149,5
26.994499083180532,-0.7626766278636086,5
27.004500750125022,-0.7575946152004319,5
27.01450241706951,-0.7174845910614804,5
27.024504084014005,-0.6584992563877334,5
27.034505750958495,-0.6137209844194046,5
27.044507417902985,-0.54153592256747,5
27.054509084847474,-0.46699517692705117,5
27.064510751791968,-0.37718267507702435,5
27.074512418736457,-0.27964286786566733,5
27.084514085680947,-0.17503523446406855,5
27.094515752625437,-0.055082848426185466,5
27.10451741956993,0.07049667750821127,5
27.11451908651442,0.14800184380262366,5
27.12452075345891,0.2384239136904564,5
27.134522420403403,0.34391234152699063,5
27.144524087347893,0.46390985286632463,5
27.154525754292383,0.5221017502501873,5
27.164527421236873,0.606003653254866,5
27.174529088181366,0.6623663398677356,5
27.184530755125856,0.7096071061395752,5
27.194532422070345,0.7265224619462901,5
27.204534089014835,0.7841790234128196,5
27.21453575595933,0.7917412176823636,5
27.22453742290382,0.7916125898427061,5
27.234539089848308,0.7627791047493896,5
27.2445407567928,0.7221195560614267,5
27.25454242373729,0.6936370200816115,5
27.26454409068178,0.6516313325386571,5
27.27454575762627,0.6038486660205481,5
27.284547424570764,0.5496851376028604,5
27.294549091515254,0.4794425702395138,5
27.304550758459744,0.4171391697218878,5
27.314552425404234,0.34772756692738865,5
27.324554092348727,0.29383455172724365,5
27.334555759293217,0.2502642697524747,5
27.344557426237706,0.2287008497038368,5
27.3545590931822,0.16126423138568247,5
27.36456076012669,0.12333189348968446,5
27.37456242707118,0.07087793075462913,5
27.38456409401567,0.058143985022480214,5
27.394565760960162,0.020780515142725477,5
27.404567427904652,-0.0004805261112053455,5
27.414569094849142,0.0026576065515130434,5
27.424570761793632,0.0026370204187684955,5
27.434572428738125,0.0054741421366763104,5
27.444574095682615,-0.003727682007472182,5
27.454575762627105,-0.012023311254818505,5
27.464577429571595,0.011086383234931373,5
27.474579096516088,-0.023100472054450996,5
27.484580763460578,-0.005660616414786227,5
27.494582430405067,-0.017876571095803522,5
27.50458409734956,-0.027005033636965617,5
27.51458576429405,-0.04691876858933119,5
27.52458743123854,-0.08844823167107654,5
27.53458909818303,-0.11170124672981467,5
27.544590765127523,-0.17158576340821965,5
27.554592432072013,-0.22280379180733692,5
27.564594099016503,-0.25320307462647257,5
27.574595765960993,-0.33922500323275856,5
27.584597432905486,-0.3801680898245007,5
27.594599099849976,-0.44715126225276564,5
27.604600766794466,-0.4945900911577977,5
27.61460243373896,-0.5592147476850382,5
27.62460410068345,-0.6068379299560518,5
27.63460576762794,-0.6636252010879011,5
27.64460743457243,-0.7128336172234783,5
27.65460910151692,-0.7520880304023057,5
27.66461076846141,-0.7618321191710195,5
27.6746124354059,-0.8003852650130427,5
27.68461410235039,-0.7804053593299576,5
27.694615769294884,-0.7649550039889252,5
27.704617436239374,-0.7311012764531205,5
27.714619103183864,-0.7085702802085686,5
27.724620770128357,-0.6315776266631724,5
27.734622437072847,-0.5957851943608564,5
27.744624104017337,-0.5017356244662325,5
27.754625770961827,-0.4162082735947577,5
27.76462743790632,-0.33132230839465476,5
27.77462910485081,-0.20269426307043178,5
27.7846307717953,-0.10509059033296914,5
27.79463243873979,-0.006535738710019024,5
27.804634105684283,0.1112885025512077,5
27.814635772628773,0.21422147351583518,5
27.824637439573262,0.28965150480994606,5
27.834639106517756,0.4084107756901479,5
27.844640773462245,0.5031666267047783,5
27.854642440406735,0.567599883319915,5
27.864644107351225,0.6366567946585504,5
27.87464577429572,0.6846003260660782,5
27.884647441240208,0.7316331883556162,5
27.894649108184698,0.7710348809928924,5
27.904650775129188,0.7824621688153488,5
27.91465244207368,0.7835086133904177,5
27.92465410901817,0.7509693433497802,5
27.93465577596266,0.7388741018952751,5
27.944657442907154,0.7114299783442132,5
27.954659109851644,0.6751923470745987,5
27.964660776796133,0.6236944117646437,5
27.974662443740623,0.5713820954607759,5
27.984664110685117,0.49129918883931023,5
27.994665777629606,0.43945430227728266,5
28.004667444574096,0.3870419517427793,5
28.014669111518586,0.33262656520973805,5
28.02467077846308,0.2849071905978707,5
28.03467244540757,0.22867540771603242,5
28.04467411235206,0.16029106018198797,5
28.054675779296552,0.12236487855732295,5
28.064677446241042,0.09012223894353184,5
28.07467911318553,0.05491001488196661,5
28.08468078013002,0.04318610602202976,5
28.094682447074515,0.03000705472370338,5
28.104684114019005,-0.0015135681197036566,5
28.114685780963494,0.007101197476001948,5
28.124687447907984,0.004223141259812175,5
28.134689114852478,-0.008689039979067838,5
28.144690781796967,-0.01489770926911012,5
28.154692448741457,-0.02530004509775319,5
28.164694115685947,-0.006597310925120845,5
28.17469578263044,0.0012272517273273342,5
28.18469744957493,-0.003221159970667062,5
28.19469911651942,-0.023393774833986393,5
28.204700783463913,-0.04643846702504165,5
28.214702450408403,-0.09135488602513112,5
28.224704117352893,-0.11088324477375502,5
28.234705784297383,-0.14861719212640828,5
28.244707451241876,-0.18961045018627873,5
28.254709118186366,-0.2332037767106053,5
28.264710785130855,-0.286823135154504,5
28.274712452075345,-0.3473903784074586,5
28.28471411901984,-0.4094929848675206,5
28.29471578596433,-0.48891889706957775,5
28.304717452908818,-0.5507880733697552,5
28.31471911985331,-0.5916796564957619,5
28.3247207867978,-0.649971475837052,5
28.33472245374229,-0.6894352186803536,5
28.34472412068678,-0.7227619289956638,5
28.354725787631274,-0.765594999486868,5
28.364727454575764,-0.7674731420032264,5
28.374729121520254,-0.7797021372527686,5
28.384730788464744,-0.7493829287729791,5
28.394732455409237,-0.742376300979514,5
28.404734122353727,-0.7049732427448708,5
28.414735789298216,-0.6612528097131664,5
28.42473745624271,-0.6159848896028681,5
28.4347391231872,-0.5441272625245744,5
28.44474079013169,-0.46236663619276536,5
28.45474245707618,-0.37280672520759495,5
28.464744124020672,-0.2778525388591977,5
28.474745790965162,-0.1691566394656832,5
28.484747457909652,-0.07433341869905367,5
28.494749124854142,0.05881711759100933,5
28.504750791798635,0.15177871610234045,5
28.514752458743125,0.2608056983433656,5
28.524754125687615,0.35341710201720106,5
28.534755792632108,0.45478136149449033,5
28.544757459576598,0.5195662257392409,5
28.554759126521088,0.6095125600161577,5
28.564760793465577,0.6637661033326021,5
28.57476246041007,0.7133552822827375,5
28.58476412735456,0.7492186469326209,5
28.59476579429905,0.7788077325671997,5
28.60476746124354,0.7688920242723548,5
28.614769128188033,0.7618579489577662,5
28.624770795132523,0.7510291901805787,5
28.634772462077013,0.7232029284577476,5
28.644774129021506,0.7004990503123517,5
28.654775795965996,0.6670890887780525,5
28.664777462910486,0.5917139737851038,5
28.674779129854976,0.5495025628902573,5
28.68478079679947,0.48026654501684807,5
28.69478246374396,0.4088888688755247,5
28.70478413068845,0.3510493188451128,5
28.71478579763294,0.2784817807936138,5
28.72478746457743,0.26287733002863434,5
28.73478913152192,0.1850053907692568,5
28.74479079846641,0.14458810192641694,5
28.754792465410905,0.11001633903206884,5
28.764794132355394,0.06776061670511213,5
28.774795799299884,0.049711287519203375,5
28.784797466244374,0.028876759674330777,5
28.794799133188867,0.010789283854247697,5
28.804800800133357,0.00011735486424349455,5
28.814802467077847,0.0010951460312660626,5
28.824804134022337,0.002993036647975424,5
28.83480580096683,-0.00472867572405114,5
28.84480746791132,0.0026610089852612028,5
