time,ppg_signal,subject_id
0.0,0.0014665488492327373,4
0.010001666944490749,0.09064218924392801,4
0.020003333888981498,0.17913963566669158,4
0.030005000833472247,0.2684621568766273,4
0.040006667777962995,0.3736201940629807,4
0.050008334722453744,0.4447440338413135,4
0.06001000166694449,0.5175444183267739,4
0.07001166861143523,0.5784281643384394,4
0.08001333555592599,0.6367354901369435,4
0.09001500250041675,0.6875025854907842,4
0.10001666944490749,0.7342422897244831,4
0.11001833638939823,0.7607099163838652,4
0.12002000333388899,0.7708858648247762,4
0.13002167027837974,0.7966540253255936,4
0.14002333722287047,0.7824655083108861,4
0.15002500416736123,0.7701861356020676,4
0.16002667111185198,0.7102711056704575,4
0.17002833805634274,0.7118033571498564,4
0.1800300050008335,0.654046692146964,4
0.19003167194532422,0.6250149512673987,4
0.20003333888981498,0.566689723893823,4
0.21003500583430573,0.5388580608191981,4
0.22003667277879646,0.4685067022365121,4
0.23003833972328722,0.4196914495548963,4
0.24004000666777797,0.3524129368701961,4
0.2500416736122687,0.3180074282269851,4
0.2600433405567595,0.24722601413216821,4
0.2700450075012502,0.2049487015988336,4
0.28004667444574094,0.1663165057536925,4
0.2900483413902317,0.13191862016631667,4
0.30005000833472245,0.09913059909365972,4
0.31005167527921323,0.07308681074241347,4
0.32005334222370396,0.056998029945927814,4
0.3300550091681947,0.025800474055324308,4
0.3400566761126855,0.027191141993474263,4
0.3500583430571762,0.010858245078533543,4
0.360060010001667,0.004529326478996716,4
0.3700616769461577,0.005006170103394311,4
0.38006334389064844,0.004527308326400011,4
0.3900650108351392,0.011479674017279085,4
0.40006667777962995,0.010882424254358217,4
0.4100683447241207,0.005383520251328782,4
0.42007001166861146,-0.016721324439150885,4
0.4300716786131022,-0.0245735506339851,4
0.4400733455575929,-0.02288746330161033,4
0.4500750125020837,-0.020760332662423588,4
0.46007667944657443,-0.058901948036446106,4
0.4700783463910652,-0.05540089265292991,4
0.48008001333555594,-0.09863929930842792,4
0.49008168028004667,-0.13234170352944466,4
0.5000833472245374,-0.17159769082384696,4
0.5100850141690282,-0.2121645293967982,4
0.520086681113519,-0.2525757063018885,4
0.5300883480580096,-0.3020071036402439,4
0.5400900150025004,-0.37560520249487794,4
0.5500916819469912,-0.4034865305501661,4
0.5600933488914819,-0.46371991978273885,4
0.5700950158359727,-0.5085977679769562,4
0.5800966827804634,-0.5785938239000462,4
0.5900983497249542,-0.6139921151958609,4
0.6001000166694449,-0.6474561158235493,4
0.6101016836139357,-0.7003389371361961,4
0.6201033505584265,-0.7349325707788854,4
0.6301050175029171,-0.7761333873404991,4
0.6401066844474079,-0.7740334399744705,4
0.6501083513918987,-0.7784626672411814,4
0.6601100183363894,-0.7675709458994207,4
0.6701116852808802,-0.7753635879028681,4
0.680113352225371,-0.7093635036164859,4
0.6901150191698616,-0.6955631123864573,4
0.7001166861143524,-0.6238347260094783,4
0.7101183530588432,-0.5940961761276792,4
0.720120020003334,-0.5157144234241755,4
0.7301216869478246,-0.4490656277098193,4
0.7401233538923154,-0.3769992491581055,4
0.7501250208368062,-0.28139141963986714,4
0.7601266877812969,-0.19535625942845417,4
0.7701283547257877,-0.08929490754959783,4
0.7801300216702785,-0.0006995617239241198,4
0.7901316886147691,0.09102285151802751,4
0.8001333555592599,0.18066650671968257,4
0.8101350225037507,0.2747629831253305,4
0.8201366894482414,0.3694688680345551,4
0.8301383563927321,0.43816425204773835,4
0.8401400233372229,0.534077413206049,4
0.8501416902817136,0.600022237308872,4
0.8601433572262044,0.6363384104096749,4
0.8701450241706952,0.6832175330158635,4
0.8801466911151858,0.7255228973054473,4
0.8901483580596766,0.7482927915007763,4
0.9001500250041674,0.7794841735049871,4
0.9101516919486582,0.7818362110696256,4
0.9201533588931489,0.7619173569724015,4
0.9301550258376396,0.755340468413058,4
0.9401566927821304,0.7456122962473847,4
0.9501583597266211,0.6778591427150638,4
0.9601600266711119,0.6608819469396439,4
0.9701616936156027,0.6253456476564128,4
0.9801633605600933,0.5671371858632908,4
0.9901650275045841,0.5414877274685812,4
1.0001666944490748,0.47212268148620923,4
1.0101683613935657,0.4190470757729043,4
1.0201700283380564,0.3605767168834281,4
1.030171695282547,0.3062118920378807,4
1.040173362227038,0.2607774883856599,4
1.0501750291715286,0.22777331275004153,4
1.0601766961160193,0.15779348185462808,4
1.0701783630605102,0.15744591623935184,4
1.0801800300050008,0.09012454302495947,4
1.0901816969494915,0.05419118797194515,4
1.1001833638939824,0.050155434804561895,4
1.110185030838473,0.031904104015734326,4
1.1201866977829638,0.021422483793993443,4
1.1301883647274547,0.003836681231901112,4
1.1401900316719453,-0.012947848204583483,4
1.1501916986164362,-0.006072163872873161,4
1.160193365560927,-0.0013021953114885744,4
1.1701950325054176,0.00225759139584084,4
1.1801966994499085,0.01317837968231702,4
1.1901983663943991,-0.00026944694691391426,4
1.2002000333388898,-0.0047622160048782025,4
1.2102017002833807,-0.010130410058864963,4
1.2202033672278714,-0.010203267804162367,4
1.230205034172362,-0.03630602406887819,4
1.240206701116853,-0.06936825508034497,4
1.2502083680613436,-0.08199752582461386,4
1.2602100350058343,-0.08114660396955174,4
1.2702117019503252,-0.1254504502113959,4
1.2802133688948159,-0.1646486686188175,4
1.2902150358393065,-0.22456727824284925,4
1.3002167027837974,-0.24916725922886587,4
1.310218369728288,-0.29514498356310964,4
1.3202200366727788,-0.3383313003905478,4
1.3302217036172697,-0.41248450693742694,4
1.3402233705617603,-0.47401117511018415,4
1.350225037506251,-0.5295088944237261,4
1.360226704450742,-0.5711589729508704,4
1.3702283713952326,-0.629713009554851,4
1.3802300383397232,-0.6586693304802641,4
1.3902317052842141,-0.6958315336602399,4
1.4002333722287048,-0.7353833933635027,4
1.4102350391731955,-0.7576658057152338,4
1.4202367061176864,-0.7941666926506193,4
1.430238373062177,-0.7802220214756505,4
1.440240040006668,-0.7640073720664265,4
1.4502417069511586,-0.7628822412063673,4
1.4602433738956493,-0.727971854939165,4
1.4702450408401402,-0.6939694267096015,4
1.4802467077846309,-0.652273363282075,4
1.4902483747291215,-0.5909136773806162,4
1.5002500416736124,-0.5331496973355623,4
1.510251708618103,-0.4589534362925089,4
1.5202533755625938,-0.3712283683089028,4
1.5302550425070847,-0.2947399466803691,4
1.5402567094515753,-0.19077670085064236,4
1.550258376396066,-0.08990830913772167,4
1.560260043340557,-0.0023301992045438556,4
1.5702617102850476,0.0924305176957197,4
1.5802633772295382,0.20138053465728656,4
1.5902650441740291,0.2849667947537427,4
1.6002667111185198,0.3601022188484618,4
1.6102683780630105,0.44754892587780787,4
1.6202700450075014,0.5351795319631718,4
1.630271711951992,0.5842427884973599,4
1.6402733788964827,0.6430459561035669,4
1.6502750458409736,0.7043274439239688,4
1.6602767127854643,0.7345228585340233,4
1.670278379729955,0.7543604408325723,4
1.6802800466744459,0.7834465238476626,4
1.6902817136189365,0.7879757428133033,4
1.7002833805634272,0.7770974816369388,4
1.710285047507918,0.746291013418403,4
1.7202867144524088,0.7248726168565163,4
1.7302883813968994,0.7012394705470563,4
1.7402900483413903,0.6743179361876408,4
1.750291715285881,0.6396023964704818,4
1.7602933822303717,0.5584318304713625,4
1.7702950491748626,0.5169931515292674,4
1.7802967161193533,0.47467566848005804,4
1.7902983830638441,0.3990049743066669,4
1.8003000500083348,0.3820854655859403,4
1.8103017169528255,0.3167004393694161,4
1.8203033838973164,0.2585687727691133,4
1.830305050841807,0.21426804483835402,4
1.8403067177862977,0.1846173722791817,4
1.8503083847307886,0.13689432906188634,4
1.8603100516752793,0.10913758723791753,4
1.87031171861977,0.08022094464312689,4
1.8803133855642609,0.037989661568125006,4
1.8903150525087515,0.022841112849291592,4
1.9003167194532422,0.013140106076089859,4
1.910318386397733,0.014429652179889185,4
1.9203200533422238,0.007012532573004879,4
1.9303217202867144,-0.001800144379259605,4
1.9403233872312053,-0.00817829892533585,4
1.950325054175696,0.013263827169230878,4
1.9603267211201867,0.0019385949059908636,4
1.9703283880646776,-0.0006050157838606881,4
1.9803300550091683,-0.025460409055567984,4
1.990331721953659,-0.0179813244831944,4
2.0003333888981496,-0.019957819215048658,4
2.0103350558426407,-0.027176374238018598,4
2.0203367227871314,-0.04751237976723923,4
2.030338389731622,-0.0560593844926381,4
2.0403400566761127,-0.1218386227075046,4
2.0503417236206034,-0.12928750802737135,4
2.060343390565094,-0.1708937169204976,4
2.070345057509585,-0.21516543156819423,4
2.080346724454076,-0.26423251648774,4
2.0903483913985665,-0.3167136966300271,4
2.100350058343057,-0.37319250743890464,4
2.110351725287548,-0.40967355786621523,4
2.1203533922320386,-0.47448766942127024,4
2.1303550591765297,-0.511130746607137,4
2.1403567261210203,-0.5751320599516864,4
2.150358393065511,-0.6397805326629898,4
2.1603600600100017,-0.6751842997466219,4
2.1703617269544924,-0.694699354636572,4
2.180363393898983,-0.733611373282823,4
2.190365060843474,-0.7601250837483401,4
2.200366727787965,-0.7627865196279611,4
2.2103683947324555,-0.7775840048284469,4
2.220370061676946,-0.7624027023403328,4
2.230371728621437,-0.7592427800530513,4
2.2403733955659275,-0.7214492317530778,4
2.2503750625104186,-0.7063315759507032,4
2.2603767294549093,-0.6415143253375875,4
2.2703783963994,-0.5851361639451427,4
2.2803800633438907,-0.5177768788873524,4
2.2903817302883813,-0.45701083045453883,4
2.3003833972328724,-0.38981667446321516,4
2.310385064177363,-0.28236492417371134,4
2.320386731121854,-0.19861289292924098,4
2.3303883980663445,-0.08203107633180533,4
2.340390065010835,-0.013121243750988982,4
2.350391731955326,0.0798826360044944,4
2.360393398899817,0.19532720907889525,4
2.3703950658443076,0.2824681216885774,4
2.3803967327887983,0.38055240678615815,4
2.390398399733289,0.4580229285739723,4
2.4004000666777796,0.53262783083274,4
2.4104017336222703,0.6021965624960033,4
2.4204034005667614,0.6770123908744304,4
2.430405067511252,0.7035202804123266,4
2.4404067344557427,0.7356368241215183,4
2.4504084014002334,0.7547625876386453,4
2.460410068344724,0.7853601268980203,4
2.4704117352892148,0.804415734184801,4
2.480413402233706,0.7704404279419893,4
2.4904150691781965,0.7621072235918762,4
2.5004167361226872,0.7461978657958086,4
2.510418403067178,0.687486767412987,4
2.5204200700116686,0.6480580227994346,4
2.5304217369561592,0.6246082905356998,4
2.5404234039006504,0.5832016434670008,4
2.550425070845141,0.5200242727486201,4
2.5604267377896317,0.46328379555854915,4
2.5704284047341224,0.400147013015449,4
2.580430071678613,0.3547936279130388,4
2.590431738623104,0.31038524661110595,4
2.600433405567595,0.25535051915815443,4
2.6104350725120855,0.208487343474907,4
2.620436739456576,0.1851674375503679,4
2.630438406401067,0.11918531157907855,4
2.6404400733455575,0.09967971675293444,4
2.6504417402900486,0.055940781401675285,4
2.6604434072345393,0.05467798628079379,4
2.67044507417903,0.024709549942480882,4
2.6804467411235207,0.02205595414788698,4
2.6904484080680113,0.013071222208659224,4
2.700450075012502,0.01820328913625383,4
2.710451741956993,-0.00044481330699973863,4
2.720453408901484,0.018417215062613613,4
2.7304550758459745,-0.0008563580964178351,4
2.740456742790465,-0.007832143913570844,4
2.750458409734956,-0.012989601999715413,4
2.7604600766794465,0.00019999238473740206,4
2.7704617436239376,-0.005112232696108981,4
2.7804634105684283,-0.023636708503343894,4
2.790465077512919,-0.022549247220772464,4
2.8004667444574096,-0.06681055750160439,4
2.8104684114019003,-0.06492986031192398,4
2.820470078346391,-0.11112757233054134,4
2.830471745290882,-0.11583004078254924,4
2.8404734122353728,-0.16959773053722413,4
2.8504750791798634,-0.20592266975685727,4
2.860476746124354,-0.26327892915108986,4
2.8704784130688448,-0.3148198152523456,4
2.880480080013336,-0.359272136534934,4
2.8904817469578266,-0.43007855483721613,4
2.9004834139023172,-0.4721584665134646,4
2.910485080846808,-0.5271681676762472,4
2.9204867477912986,-0.5814472142396989,4
2.9304884147357892,-0.6305153423138021,4
2.9404900816802804,-0.673724962352592,4
2.950491748624771,-0.6985809853928631,4
2.9604934155692617,-0.7301998928430073,4
2.9704950825137524,-0.7746092715307191,4
2.980496749458243,-0.7732054272370048,4
2.9904984164027337,-0.7638561844529619,4
3.000500083347225,-0.7562523433230638,4
3.0105017502917155,-0.7566774417871027,4
3.020503417236206,-0.7204109715067336,4
3.030505084180697,-0.6887361802348382,4
3.0405067511251875,-0.6418263905743132,4
3.050508418069678,-0.5861338979821494,4
3.0605100850141693,-0.5134892552925862,4
3.07051175195866,-0.47281112245524415,4
3.0805134189031507,-0.3795994568234237,4
3.0905150858476413,-0.27667524599223575,4
3.100516752792132,-0.17181569251600132,4
3.1105184197366227,-0.11512181961622152,4
3.120520086681114,0.017438402500172433,4
3.1305217536256045,0.09888282937717967,4
3.140523420570095,0.22460947755837843,4
3.150525087514586,0.28327367060368147,4
3.1605267544590765,0.3812388138982509,4
3.170528421403567,0.45925868997781616,4
3.1805300883480583,0.5243917021675327,4
3.190531755292549,0.6022290928023122,4
3.2005334222370396,0.6519894637401956,4
3.2105350891815303,0.7010410644722621,4
3.220536756126021,0.752867511265929,4
3.230538423070512,0.7479047335727522,4
3.2405400900150028,0.7772323072833651,4
3.2505417569594934,0.7916388078866232,4
3.260543423903984,0.7667739162920503,4
3.270545090848475,0.7636556242733692,4
3.2805467577929655,0.7302373663589729,4
3.2905484247374566,0.7038813557189734,4
3.3005500916819472,0.6568082746816343,4
3.310551758626438,0.6323866565289507,4
3.3205534255709286,0.5812194929401168,4
3.3305550925154193,0.5181579394376891,4
3.34055675945991,0.4684936899371314,4
3.350558426404401,0.4169604245321394,4
3.3605600933488917,0.36625139434331966,4
3.3705617602933824,0.30104949122310465,4
3.380563427237873,0.26159011567315843,4
3.3905650941823637,0.23211965087933217,4
3.4005667611268544,0.1627293120182612,4
3.4105684280713455,0.12132911691700353,4
3.420570095015836,0.1078104098906735,4
3.430571761960327,0.055980729137867793,4
3.4405734289048175,0.038716062026886246,4
3.450575095849308,0.032100545066153084,4
3.460576762793799,0.006579948275378366,4
3.47057842973829,0.012307634875968454,4
3.4805800966827807,0.005544804684854382,4
3.4905817636272714,0.01154611846703543,4
3.500583430571762,0.006977939976587619,4
3.5105850975162527,0.0033702853205782686,4
3.5205867644607434,-0.0005961252100168766,4
3.5305884314052345,0.008708393114393215,4
3.540590098349725,-0.01225690375485571,4
3.550591765294216,-0.014023257019780619,4
3.5605934322387065,-0.018345432133674944,4
3.570595099183197,-0.03051788860155659,4
3.5805967661276883,-0.056589575973074055,4
3.590598433072179,-0.07536229691831943,4
3.6006001000166696,-0.11041751644323967,4
3.6106017669611603,-0.13927822144134555,4
3.620603433905651,-0.18314558325761074,4
3.6306051008501417,-0.2013745966926807,4
3.6406067677946328,-0.25911151193099863,4
3.6506084347391234,-0.3203408876996707,4
3.660610101683614,-0.38108135602099946,4
3.670611768628105,-0.4228505955887446,4
3.6806134355725955,-0.4842019768484568,4
3.690615102517086,-0.5262341090760033,4
3.7006167694615772,-0.5794419424238854,4
3.710618436406068,-0.62667972193488,4
3.7206201033505586,-0.6703455544238021,4
3.7306217702950493,-0.7081951103191049,4
3.74062343723954,-0.7311436636929611,4
3.7506251041840306,-0.7471093603286317,4
3.7606267711285217,-0.7812101797693717,4
3.7706284380730124,-0.7711603972512694,4
3.780630105017503,-0.7817710186797491,4
3.7906317719619937,-0.7597234809224976,4
3.8006334389064844,-0.7161596669725729,4
3.810635105850975,-0.698033531746752,4
3.820636772795466,-0.667068035586559,4
3.830638439739957,-0.5934219899631675,4
3.8406401066844476,-0.5306393163191145,4
3.8506417736289382,-0.44587058948036584,4
3.860643440573429,-0.3681127919295868,4
3.87064510751792,-0.28943657156349356,4
3.8806467744624107,-0.19990021704312877,4
3.8906484414069014,-0.07556774400469252,4
3.900650108351392,-0.006084128276574783,4
3.9106517752958827,0.10850752004098174,4
3.9206534422403734,0.19868590592692267,4
3.9306551091848645,0.27156249672433175,4
3.940656776129355,0.3784104600034627,4
3.950658443073846,0.42650905866959155,4
3.9606601100183365,0.5197365442354904,4
3.970661776962827,0.608575276033139,4
3.980663443907318,0.654366634236425,4
3.990665110851809,0.6964639517908195,4
4.000666777796299,0.7503665967236942,4
4.01066844474079,0.7745393255389046,4
4.020670111685281,0.7792264272682686,4
4.030671778629772,0.7908089597025758,4
4.040673445574263,0.7803283033941104,4
4.0506751125187535,0.748101280492628,4
4.060676779463244,0.7439625548188974,4
4.070678446407735,0.694762152456845,4
4.0806801133522255,0.6611983766347068,4
4.090681780296716,0.6225150225067722,4
4.100683447241207,0.5804888896719641,4
4.1106851141856975,0.5359124863657971,4
4.120686781130188,0.4792348247843246,4
4.130688448074679,0.4158515787542937,4
4.14069011501917,0.36120041295147987,4
4.150691781963661,0.2885753302325087,4
4.160693448908152,0.26666607489625116,4
4.170695115852642,0.2214890472353335,4
4.180696782797133,0.16194701946722392,4
4.190698449741624,0.14551931713842803,4
4.200700116686114,0.10441115378329695,4
4.210701783630605,0.06054612928887626,4
4.220703450575096,0.03948394559561119,4
4.2307051175195864,0.03230851911211143,4
4.240706784464077,0.032189580930992445,4
4.250708451408569,0.018758314303101143,4
4.260710118353059,0.0025448023523945247,4
4.27071178529755,-0.002505379173609817,4
4.280713452242041,-0.016064098707167164,4
4.290715119186531,0.0025538713433268688,4
4.300716786131022,-0.012665705542414476,4
4.310718453075513,-0.007694490181894491,4
4.320720120020003,0.004486293211859298,4
4.330721786964494,-0.015571900885995521,4
4.340723453908985,-0.012837088012233695,4
4.350725120853475,-0.03665143740077589,4
4.360726787797966,-0.05575881191594033,4
4.370728454742458,-0.0739960816135667,4
4.380730121686948,-0.10795442233572745,4
4.390731788631439,-0.14167667123822694,4
4.40073345557593,-0.1805719872981583,4
4.41073512252042,-0.22660722569651015,4
4.420736789464911,-0.2571429860756465,4
4.430738456409402,-0.3107910563851512,4
4.440740123353892,-0.35776757826660366,4
4.450741790298383,-0.42276583542576823,4
4.460743457242874,-0.4638681184372851,4
4.470745124187364,-0.5422122476234014,4
4.480746791131855,-0.5880799788598974,4
4.490748458076347,-0.6158527199270225,4
4.500750125020837,-0.6577698567982343,4
4.510751791965328,-0.7006376065938946,4
4.520753458909819,-0.748958754439445,4
4.530755125854309,-0.764427349668074,4
4.5407567927988,-0.7740664773242123,4
4.550758459743291,-0.7834539418996351,4
4.560760126687781,-0.7702871030272178,4
4.570761793632272,-0.7534692570596857,4
4.580763460576763,-0.7204892745906311,4
4.590765127521253,-0.700750086565184,4
4.600766794465745,-0.6583281099371844,4
4.6107684614102356,-0.5925412362129312,4
4.620770128354726,-0.4992722384303727,4
4.630771795299217,-0.4557659871792395,4
4.640773462243708,-0.3712153660780893,4
4.650775129188198,-0.28990157636950115,4
4.660776796132689,-0.18800927106075108,4
4.67077846307718,-0.09730750086862755,4
4.68078013002167,0.0070324250246081,4
4.690781796966161,0.1069422952100568,4
4.700783463910652,0.19556219060819463,4
4.710785130855142,0.2633161612476027,4
4.720786797799634,0.3782026717735603,4
4.7307884647441245,0.44350821929846,4
4.740790131688615,0.5338357535141037,4
4.750791798633106,0.5804993515314231,4
4.7607934655775965,0.6563187203906106,4
4.770795132522087,0.7057559477821645,4
4.780796799466578,0.7446161250094084,4
4.7907984664110685,0.7766598224567801,4
4.800800133355559,0.7721817649370917,4
4.81080180030005,0.8039646273369319,4
4.820803467244541,0.7857611384916243,4
4.830805134189032,0.7614499992489213,4
4.840806801133523,0.7343233180977747,4
4.8508084680780135,0.6946939504427632,4
4.860810135022504,0.6645696225528401,4
4.870811801966995,0.6355231275126755,4
4.8808134689114855,0.5766986549354353,4
4.890815135855976,0.5039603571477604,4
4.900816802800467,0.4651505714993264,4
4.9108184697449575,0.4143604698514007,4
4.920820136689448,0.35683295678654087,4
4.930821803633939,0.30295164681316067,4
4.9408234705784295,0.2576626229729766,4
4.950825137522921,0.22575979766439988,4
4.960826804467412,0.17389913963273446,4
4.970828471411902,0.12808649450177859,4
4.980830138356393,0.10138064529424722,4
4.990831805300884,0.058761110474992356,4
5.0008334722453744,0.03941897135082517,4
5.010835139189865,0.029514111983533375,4
5.020836806134356,0.020391517142495857,4
5.0308384730788465,-0.0007542074227122747,4
5.040840140023337,-0.005283779881793125,4
5.050841806967828,-0.002343737196496508,4
5.0608434739123185,0.012327516366614479,4
5.07084514085681,0.015005395866616499,4
5.080846807801301,-0.008955401324975217,4
5.090848474745791,0.0037837782460425464,4
5.100850141690282,-0.005934538571310677,4
5.110851808634773,0.00897875213618348,4
5.120853475579263,-0.0029503206603541283,4
5.130855142523754,-0.01782867160426619,4
5.140856809468245,-0.0565721169424824,4
5.150858476412735,-0.0866398809135395,4
5.160860143357226,-0.09239530190563178,4
5.170861810301717,-0.1327697332489909,4
5.180863477246208,-0.1753096918070982,4
5.190865144190699,-0.2133556480929695,4
5.20086681113519,-0.24020763446289817,4
5.21086847807968,-0.31210450828546166,4
5.220870145024171,-0.3729101406126045,4
5.230871811968662,-0.40740294682939177,4
5.240873478913152,-0.4532815767733833,4
5.250875145857643,-0.5419020586584388,4
5.260876812802134,-0.58286116879173,4
5.270878479746624,-0.6131605165643379,4
5.280880146691115,-0.6758056289766969,4
5.290881813635606,-0.7149229908560967,4
5.300883480580097,-0.733349953736632,4
5.310885147524588,-0.7641988946250842,4
5.320886814469079,-0.7790706312506634,4
5.330888481413569,-0.7768972087844045,4
5.34089014835806,-0.7779621267414258,4
5.350891815302551,-0.7412532305315787,4
5.360893482247041,-0.7222513923376902,4
5.370895149191532,-0.6969876764035301,4
5.380896816136023,-0.6571734731534631,4
5.390898483080513,-0.5997733300853658,4
5.400900150025004,-0.5183439710961565,4
5.410901816969495,-0.4332871382960742,4
5.420903483913986,-0.3779486240974574,4
5.430905150858477,-0.29014743964203654,4
5.440906817802968,-0.18272568380715887,4
5.450908484747458,-0.07970354069559477,4
5.460910151691949,0.013815580968860776,4
5.47091181863644,0.08316537710891683,4
5.48091348558093,0.1842047741347567,4
5.490915152525421,0.3016800548925702,4
5.500916819469912,0.3745122248281838,4
5.510918486414402,0.4606966560000329,4
5.520920153358893,0.5385287313669684,4
5.5309218203033845,0.5690975736871127,4
5.540923487247875,0.6516062254390378,4
5.550925154192366,0.6890381122438001,4
5.5609268211368565,0.7356203123325527,4
5.570928488081347,0.7610449910318522,4
5.580930155025838,0.7744279732553522,4
5.590931821970329,0.7840271539476281,4
5.600933488914819,0.7888571000012624,4
5.61093515585931,0.7606620448950041,4
5.620936822803801,0.7452158385903797,4
5.630938489748291,0.7149981698643177,4
5.640940156692782,0.6753516904178155,4
5.6509418236372735,0.6263978295506362,4
5.660943490581764,0.5634454162409679,4
5.670945157526255,0.5341224306723762,4
5.6809468244707455,0.4780447351216328,4
5.690948491415236,0.4198870750641226,4
5.700950158359727,0.3613347962746553,4
5.7109518253042175,0.28678373049359857,4
5.720953492248708,0.2517051260418898,4
5.730955159193199,0.21206313798836202,4
5.7409568261376895,0.1711290171158925,4
5.75095849308218,0.13498613141133986,4
5.760960160026672,0.09910827849215098,4
5.7709618269711624,0.06474398009577204,4
5.780963493915653,0.04528385258600729,4
5.790965160860144,0.01716375194266581,4
5.8009668278046345,0.007001667374430993,4
5.810968494749125,0.023176866734155345,4
5.820970161693616,0.013961452403615827,4
5.8309718286381065,-0.000743165642451682,4
5.840973495582597,-0.008251570796413664,4
5.850975162527088,0.021754685876075947,4
5.8609768294715785,0.01264387659568543,4
5.870978496416069,0.005375137365257129,4
5.880980163360561,-0.012876547063254102,4
5.890981830305051,-0.02273719112420211,4
5.900983497249542,-0.03671133586774879,4
5.910985164194033,-0.025174439397311225,4
5.920986831138523,-0.033481394354803504,4
5.930988498083014,-0.06534759899820432,4
5.940990165027505,-0.1082695788115047,4
5.950991831971995,-0.14258878429689542,4
5.960993498916486,-0.17945729145423872,4
5.970995165860977,-0.1948012043636832,4
5.9809968328054675,-0.25617699601086247,4
5.990998499749958,-0.3081042490948038,4
6.00100016669445,-0.35399299354236025,4
6.01100183363894,-0.42541844203502627,4
6.021003500583431,-0.4764308894754036,4
6.031005167527922,-0.5291997295412212,4
6.041006834472412,-0.5775486229567343,4
6.051008501416903,-0.634054485548416,4
6.061010168361394,-0.6703178252060366,4
6.071011835305884,-0.7002828752466204,4
6.081013502250375,-0.7439316987210444,4
6.091015169194866,-0.7527450521904049,4
6.101016836139356,-0.777700490230044,4
6.111018503083848,-0.7811966096945409,4
6.121020170028339,-0.7850578020052809,4
6.131021836972829,-0.7574466277079648,4
6.14102350391732,-0.7364822262133875,4
6.151025170861811,-0.6960787074928991,4
6.161026837806301,-0.6370463990453625,4
6.171028504750792,-0.5716458902729413,4
6.181030171695283,-0.5389624017639523,4
6.191031838639773,-0.443788967480096,4
6.201033505584264,-0.3584522208159983,4
6.211035172528755,-0.28271233044038185,4
6.221036839473245,-0.1885789571823473,4
6.231038506417737,-0.07703918887722347,4
6.241040173362228,-0.0057161730298264084,4
6.251041840306718,0.11414647423023816,4
6.261043507251209,0.19300937810759264,4
6.2710451741957,0.2999817929379812,4
6.28104684114019,0.38042256318613643,4
6.291048508084681,0.4473760258408664,4
6.301050175029172,0.5410089819218534,4
6.311051841973662,0.5973745141041559,4
6.321053508918153,0.6528999385898933,4
6.331055175862644,0.6893744176424018,4
6.341056842807134,0.7374391728329485,4
6.351058509751626,0.7506395299941466,4
6.361060176696117,0.7863688859198331,4
6.371061843640607,0.7835541047836638,4
6.381063510585098,0.7723927876213689,4
6.391065177529589,0.7582019088630924,4
6.401066844474079,0.7300142056874277,4
6.41106851141857,0.7282669122591161,4
6.421070178363061,0.6725089171813527,4
6.431071845307551,0.6051693728934805,4
6.441073512252042,0.5975860853938866,4
6.451075179196533,0.5216063640038957,4
6.461076846141024,0.4641340048821639,4
6.471078513085515,0.4116819746617608,4
6.4810801800300055,0.35913683437616695,4
6.491081846974496,0.31842755085361973,4
6.501083513918987,0.2658101397341037,4
6.5110851808634775,0.2003888895099602,4
6.521086847807968,0.16240426436788755,4
6.531088514752459,0.12509879514617805,4
6.54109018169695,0.11025790850685478,4
6.55109184864144,0.06061408472226039,4
6.561093515585931,0.05607814723378598,4
6.571095182530422,0.024070742636597833,4
6.581096849474913,0.010428287830583222,4
6.591098516419404,0.016631995912628997,4
6.6011001833638945,0.002040560420975131,4
6.611101850308385,0.0030825429097443586,4
6.621103517252876,-0.0014543422930622257,4
6.6311051841973665,0.01404551973593919,4
6.641106851141857,-0.01790253235536168,4
6.651108518086348,0.014771580979021877,4
6.6611101850308385,0.0007411484542236418,4
6.671111851975329,-0.012164228271528833,4
6.68111351891982,-0.02458499505125186,4
6.6911151858643105,-0.022804924148073443,4
6.701116852808802,-0.06922231443657809,4
6.711118519753293,-0.07767796776415718,4
6.721120186697783,-0.09867270999651091,4
6.731121853642274,-0.1282605081925852,4
6.741123520586765,-0.1710360835269249,4
6.7511251875312555,-0.22100207758822213,4
6.761126854475746,-0.24863742478208803,4
6.771128521420237,-0.298187783574501,4
6.7811301883647275,-0.3592080962815115,4
6.791131855309218,-0.4331293560331472,4
6.801133522253709,-0.46619273034415476,4
6.8111351891982,-0.5206335532883151,4
6.821136856142691,-0.5900077160304283,4
6.831138523087182,-0.6267573226298512,4
6.841140190031672,-0.6722600487331815,4
6.851141856976163,-0.7084654239333453,4
6.861143523920654,-0.7217926915186719,4
6.871145190865144,-0.7675995116321823,4
6.881146857809635,-0.7795302304172831,4
6.891148524754126,-0.7740777697073116,4
6.901150191698616,-0.7658102784499006,4
6.911151858643107,-0.7566922291345238,4
6.921153525587598,-0.7427924937329269,4
6.931155192532089,-0.6774855305430891,4
6.94115685947658,-0.656179473975481,4
6.951158526421071,-0.5845670774909644,4
6.961160193365561,-0.5212734431448328,4
6.971161860310052,-0.4464815300338415,4
6.981163527254543,-0.3641039419033538,4
6.991165194199033,-0.26252442388596264,4
7.001166861143524,-0.20143590307570539,4
7.011168528088015,-0.07521681149975323,4
7.021170195032505,-0.003277433106840205,4
7.031171861976996,0.09003444708806246,4
7.041173528921487,0.19892587631548667,4
7.051175195865978,0.2821568006670078,4
7.061176862810469,0.3783967130769894,4
7.07117852975496,0.4518601809662638,4
7.08118019669945,0.5173057393287619,4
7.091181863643941,0.6098087657585541,4
7.101183530588432,0.6616598351979751,4
7.111185197532922,0.7037156832435532,4
7.121186864477413,0.7212053508904827,4
7.131188531421904,0.7654999188438315,4
7.141190198366394,0.7789897082683779,4
7.151191865310885,0.7889678212014118,4
7.161193532255377,0.7638379144271281,4
7.171195199199867,0.7878917865099933,4
7.181196866144358,0.7286451768202874,4
7.191198533088849,0.6991083330989212,4
7.201200200033339,0.6880153417571875,4
7.21120186697783,0.6280269734219383,4
7.221203533922321,0.569068695199277,4
7.231205200866811,0.529393381259983,4
7.241206867811302,0.4516261078685703,4
7.251208534755793,0.4046585847604763,4
7.261210201700283,0.36343937043434865,4
7.271211868644774,0.3244653511632386,4
7.2812135355892655,0.2419171241192466,4
7.291215202533756,0.19490985697267402,4
7.301216869478247,0.16262092527346456,4
7.311218536422738,0.13026840306266238,4
7.321220203367228,0.09261661473822211,4
7.331221870311719,0.0568707991428038,4
7.34122353725621,0.05230764103727103,4
7.3512252042007,0.03382123715540882,4
7.361226871145191,0.015748548544313228,4
7.371228538089682,0.014615726940600145,4
7.381230205034172,0.003189071730916434,4
7.391231871978664,-0.009055099871314377,4
7.4012335389231545,-0.0042316628500073455,4
7.411235205867645,-0.005257860702342412,4
7.421236872812136,0.0052912231724560254,4
7.4312385397566265,-0.023742299015553192,4
7.441240206701117,0.0016898321752900312,4
7.451241873645608,-0.019097214316428898,4
7.4612435405900985,-0.03130752123268199,4
7.471245207534589,-0.0520317301720392,4
7.48124687447908,-0.059859014677175644,4
7.4912485414235706,-0.07102695431756491,4
7.501250208368061,-0.12200628568205062,4
7.511251875312553,-0.14700721630430308,4
7.5212535422570435,-0.1702938928212256,4
7.531255209201534,-0.22137199638507468,4
7.541256876146025,-0.26555793091803465,4
7.5512585430905155,-0.3153055874955318,4
7.561260210035006,-0.3755975131972234,4
7.571261876979497,-0.43046066508269004,4
7.5812635439239875,-0.4795857847937536,4
7.591265210868478,-0.5265162518669732,4
7.601266877812969,-0.5650620598781835,4
7.6112685447574595,-0.6220588066826501,4
7.62127021170195,-0.6564835447181897,4
7.631271878646442,-0.7115484004045648,4
7.641273545590932,-0.732508424765319,4
7.651275212535423,-0.7645559310428363,4
7.661276879479914,-0.7708507923563047,4
7.671278546424404,-0.7730908650170022,4
7.681280213368895,-0.763765839931987,4
7.691281880313386,-0.7407570317107782,4
7.7012835472578764,-0.7060968230026562,4
7.711285214202367,-0.704123708016044,4
7.721286881146858,-0.6469990555551997,4
7.7312885480913485,-0.5845952078766898,4
7.74129021503584,-0.5248055383302177,4
7.751291881980331,-0.45443611263493794,4
7.761293548924821,-0.3729649613506869,4
7.771295215869312,-0.2588245819390617,4
7.781296882813803,-0.17166087915652192,4
7.791298549758293,-0.07976185856507688,4
7.801300216702784,0.025703316683830073,4
7.811301883647275,0.09587358501417508,4
7.821303550591765,0.19657345358782594,4
7.831305217536256,0.275555389754864,4
7.841306884480747,0.37693309770241057,4
7.851308551425237,0.4512641056730751,4
7.861310218369729,0.5288014434571694,4
7.87131188531422,0.5905956325792823,4
7.88131355225871,0.6494535901991086,4
7.891315219203201,0.7111963535877379,4
7.901316886147692,0.7353398257161063,4
7.911318553092182,0.7556392446254053,4
7.921320220036673,0.7692107677981651,4
7.931321886981164,0.7836773150527361,4
7.941323553925654,0.7597177049517091,4
7.951325220870145,0.7634134323927787,4
7.961326887814636,0.743393779581225,4
7.971328554759126,0.7144902558458365,4
7.981330221703618,0.6523942445815415,4
7.991331888648109,0.6383000910316496,4
8.001333555592598,0.5683103853448069,4
8.01133522253709,0.5244078580242019,4
8.02133688948158,0.4524670683696703,4
8.031338556426071,0.41597683540023644,4
8.041340223370563,0.36071544584243936,4
8.051341890315053,0.30150542556646254,4
8.061343557259544,0.26788297481747825,4
8.071345224204034,0.21752483758042981,4
8.081346891148526,0.17437342889861707,4
8.091348558093015,0.1354764823746969,4
8.101350225037507,0.10535855979625128,4
8.111351891981997,0.06494757635671773,4
8.121353558926488,0.0381275949937694,4
8.131355225870978,0.038603069764079595,4
8.14135689281547,0.013808284636040356,4
8.151358559759961,-0.0065263423915179995,4
8.161360226704451,0.010984431838994856,4
8.171361893648942,0.010463176399491592,4
8.181363560593432,0.007444013371299217,4
8.191365227537924,0.0002631907149859247,4
8.201366894482414,0.008213778557341766,4
8.211368561426905,0.008701748121688434,4
8.221370228371395,0.0019695703576136855,4
8.231371895315887,-0.016545505177679286,4
8.241373562260376,-0.00951015918933467,4
8.251375229204868,-0.04215005039462215,4
8.261376896149358,-0.04289832047700163,4
8.27137856309385,-0.060051511046174934,4
8.28138023003834,-0.11043932828772053,4
8.29138189698283,-0.13289178271922647,4
8.301383563927322,-0.18456642096847037,4
8.311385230871812,-0.21029585296719316,4
8.321386897816303,-0.28159922539937493,4
8.331388564760793,-0.30711126132114164,4
8.341390231705285,-0.3645037914964684,4
8.351391898649775,-0.4217764428215498,4
8.361393565594266,-0.48097449541171833,4
8.371395232538756,-0.5285734138814995,4
8.381396899483248,-0.5704280235825125,4
8.391398566427739,-0.6236583773866539,4
8.401400233372229,-0.6692548322862623,4
8.41140190031672,-0.7073728096414733,4
8.42140356726121,-0.7406163080941905,4
8.431405234205702,-0.7706058605892719,4
8.441406901150192,-0.771420186364539,4
8.451408568094683,-0.7808315000170644,4
8.461410235039173,-0.7775228607139207,4
8.471411901983664,-0.7679847514930087,4
8.481413568928154,-0.7145528925588478,4
8.491415235872646,-0.6927213855239844,4
8.501416902817137,-0.6502415646774886,4
8.511418569761627,-0.5788110675478346,4
8.521420236706119,-0.5290194052755056,4
8.531421903650608,-0.43812884365108956,4
8.5414235705951,-0.3676439258428717,4
8.55142523753959,-0.2803954055007761,4
8.561426904484081,-0.17023294168003875,4
8.571428571428571,-0.08290641498525517,4
8.581430238373063,0.014802960111656924,4
8.591431905317553,0.10129738741689877,4
8.601433572262044,0.21219208770640127,4
8.611435239206534,0.2802171994892737,4
8.621436906151025,0.4019361529935255,4
8.631438573095517,0.45678543670856586,4
8.641440240040007,0.5250026321084903,4
8.651441906984498,0.6162649148718116,4
8.661443573928988,0.6573504172509238,4
8.67144524087348,0.6995962877893925,4
8.68144690781797,0.7272854975039371,4
8.691448574762461,0.7473078509792553,4
8.70145024170695,0.7830782876776802,4
8.711451908651442,0.7724846037771499,4
8.721453575595932,0.7965527492111498,4
8.731455242540424,0.7622278133072266,4
8.741456909484915,0.7323663668283158,4
8.751458576429405,0.6946635718093365,4
8.761460243373897,0.6532975912160649,4
8.771461910318386,0.6274628659827712,4
8.781463577262878,0.5529212904415355,4
8.791465244207368,0.5293206475690059,4
8.80146691115186,0.46977611808868663,4
8.811468578096349,0.41471434445424044,4
8.82147024504084,0.34544095684058335,4
8.83147191198533,0.29563582306600933,4
8.841473578929822,0.2566992094573751,4
8.851475245874314,0.20837342343574117,4
8.861476912818803,0.17323902622573883,4
8.871478579763295,0.12190906271732731,4
8.881480246707785,0.09964508302590573,4
8.891481913652276,0.05888441074131383,4
8.901483580596766,0.05524763506098686,4
8.911485247541258,0.03909170679272533,4
8.921486914485747,0.016304720307175356,4
8.931488581430239,0.002143441007835335,4
8.941490248374729,0.02616188816757044,4
8.95149191531922,0.014350424820138572,4
8.96149358226371,0.004489412564040263,4
8.971495249208202,0.002306320620039786,4
8.981496916152693,0.01980234537046188,4
8.991498583097183,0.008798659755988272,4
9.001500250041675,-0.004743512809028624,4
9.011501916986164,-0.02238869350691781,4
9.021503583930656,-0.019772001687947925,4
9.031505250875146,-0.021703343992650885,4
9.041506917819637,-0.06930039574850266,4
9.051508584764127,-0.05997685514327931,4
9.061510251708619,-0.11851625747854205,4
9.071511918653108,-0.13761001249799076,4
9.0815135855976,-0.1798268527954402,4
9.091515252542091,-0.22428977090105695,4
9.101516919486581,-0.28127036046682197,4
9.111518586431073,-0.31368513625287797,4
9.121520253375563,-0.3699155426814086,4
9.131521920320054,-0.40774612781450187,4
9.141523587264544,-0.47031048342729526,4
9.151525254209036,-0.5360544551656345,4
9.161526921153525,-0.5701815429635151,4
9.171528588098017,-0.6244456102598605,4
9.181530255042507,-0.6731624911047356,4
9.191531921986998,-0.7024626352252079,4
9.20153358893149,-0.7499469344131411,4
9.21153525587598,-0.7555295405420159,4
9.221536922820471,-0.7728713554537703,4
9.231538589764961,-0.7658336133928307,4
9.241540256709452,-0.7772840249521338,4
9.251541923653942,-0.7674128388142935,4
9.261543590598434,-0.734020472144831,4
9.271545257542924,-0.7093699255635199,4
9.281546924487415,-0.6122541469066415,4
9.291548591431905,-0.5916745018616093,4
9.301550258376396,-0.5202276526532857,4
9.311551925320888,-0.445471915546461,4
9.321553592265378,-0.36475799246789925,4
9.33155525920987,-0.29216144271864014,4
9.34155692615436,-0.18921644370544977,4
9.35155859309885,-0.08793061901591315,4
9.36156026004334,0.008562717447876334,4
9.371561926987832,0.10971314949266503,4
9.381563593932322,0.204140350710813,4
9.391565260876813,0.2718640575369434,4
9.401566927821303,0.37283545422679415,4
9.411568594765795,0.452971521787507,4
9.421570261710285,0.5549800653504542,4
9.431571928654776,0.5868784577408155,4
9.441573595599268,0.656579207910762,4
9.451575262543757,0.7023496996727185,4
9.461576929488249,0.7283731139366484,4
9.471578596432739,0.7630665159630782,4
9.48158026337723,0.7789741061488357,4
9.49158193032172,0.7857239739070837,4
9.501583597266212,0.7640891935329743,4
9.511585264210701,0.7489162370633723,4
9.521586931155193,0.738211003093486,4
9.531588598099683,0.7147940177989773,4
9.541590265044174,0.6526963103248994,4
9.551591931988666,0.6109142539251796,4
9.561593598933156,0.5777205251465826,4
9.571595265877647,0.519740396057988,4
9.581596932822137,0.4474378920641375,4
9.591598599766629,0.39819508005445503,4
9.601600266711118,0.3617067109210746,4
9.61160193365561,0.28367628425911773,4
9.6216036006001,0.2525403494792708,4
9.631605267544591,0.19584709470013653,4
9.641606934489081,0.15359659793522074,4
9.651608601433573,0.12484861486047498,4
9.661610268378064,0.090020564601033,4
9.671611935322554,0.07034513326918385,4
9.681613602267046,0.04347282203292411,4
9.691615269211535,0.04457223233993319,4
9.701616936156027,0.019375692188341884,4
9.711618603100517,0.00311676680937143,4
9.721620270045008,-0.0063078282781027645,4
9.731621936989498,0.013168586264237359,4
9.74162360393399,-0.010038647370247733,4
9.75162527087848,-0.00818509462015158,4
9.761626937822971,0.007022182549784761,4
9.77162860476746,0.0004836179494856756,4
9.781630271711952,-0.01206457735076406,4
9.791631938656444,-0.02116335364805151,4
9.801633605600934,-0.024685283222724362,4
9.811635272545425,-0.02029373658927424,4
9.821636939489915,-0.0415959532962997,4
9.831638606434407,-0.06849002886052576,4
9.841640273378896,-0.10616536595767682,4
9.851641940323388,-0.12804120974419383,4
9.861643607267878,-0.18410675863644294,4
9.87164527421237,-0.21573188137933963,4
9.881646941156859,-0.25537678755607834,4
9.89164860810135,-0.31000534031893784,4
9.901650275045842,-0.37164166255069975,4
9.911651941990332,-0.4049341547838248,4
9.921653608934824,-0.4644486087093853,4
9.931655275879313,-0.5253278130873602,4
9.941656942823805,-0.5864408866491007,4
9.951658609768295,-0.6197128819506199,4
9.961660276712786,-0.671033550938929,4
9.971661943657276,-0.7089126366779641,4
9.981663610601768,-0.7208783997079156,4
9.991665277546257,-0.7470567879812454,4
10.001666944490749,-0.7835703577142271,4
10.01166861143524,-0.7831254818771668,4
10.02167027837973,-0.7747952420745595,4
10.031671945324222,-0.7654111555267787,4
10.041673612268712,-0.7336043283707202,4
10.051675279213203,-0.708367536969414,4
10.061676946157693,-0.6397616298480159,4
10.071678613102184,-0.5687553413455471,4
10.081680280046674,-0.5203704294895377,4
10.091681946991166,-0.4381227515723539,4
10.101683613935656,-0.37283668072324816,4
10.111685280880147,-0.2756910879736227,4
10.121686947824637,-0.17810729327636893,4
10.131688614769129,-0.09026262697090812,4
10.14169028171362,-0.007506985700333145,4
10.15169194865811,0.1036677213375558,4
10.161693615602601,0.20704118528777765,4
10.171695282547091,0.29108794022129353,4
10.181696949491583,0.37218581801838824,4
10.191698616436073,0.46102816060890656,4
10.201700283380564,0.5393096526157118,4
10.211701950325054,0.5895103851455313,4
10.221703617269545,0.6547103845861667,4
10.231705284214035,0.6992676330555407,4
10.241706951158527,0.7541742515587975,4
10.251708618103018,0.7504543615414968,4
10.261710285047508,0.7821452769166114,4
10.271711951992,0.7653350014892462,4
10.28171361893649,0.7842537246422034,4
10.291715285880981,0.7521822369657155,4
10.30171695282547,0.7488818727431712,4
10.311718619769962,0.6941611471215466,4
10.321720286714452,0.6741598368040101,4
10.331721953658944,0.6145400505496377,4
10.341723620603434,0.5825196545058952,4
10.351725287547925,0.5303297520216409,4
10.361726954492417,0.4577756675777437,4
10.371728621436906,0.4012484305594749,4
10.381730288381398,0.3563727765380988,4
10.391731955325888,0.29901115380028337,4
10.40173362227038,0.2420758920568477,4
10.41173528921487,0.20719307834400044,4
10.42173695615936,0.16570144401292233,4
10.43173862310385,0.1275911490969002,4
10.441740290048342,0.08882095795068991,4
10.451741956992832,0.07637790275047393,4
10.461743623937323,0.053138099959791914,4
10.471745290881813,0.02584337558434107,4
10.481746957826305,0.018177473231032127,4
10.491748624770796,0.009377438032413478,4
10.501750291715286,0.0038297353847979838,4
10.511751958659778,-0.0044727850841718144,4
10.521753625604267,-0.00229756121577612,4
10.531755292548759,0.00748330197194105,4
10.541756959493249,0.008986772320703431,4
10.55175862643774,0.004750035405604817,4
10.56176029338223,0.008299982709571907,4
10.571761960326722,0.003963222332909655,4
10.581763627271211,-0.00753597195108433,4
10.591765294215703,-0.032611250081280414,4
10.601766961160195,-0.04741218289689074,4
10.611768628104684,-0.06600683887196132,4
10.621770295049176,-0.11578212699240872,4
10.631771961993666,-0.13772665042873677,4
10.641773628938157,-0.15827333586885367,4
10.651775295882647,-0.21294167136966494,4
10.661776962827139,-0.26700442525875884,4
10.671778629771628,-0.32007032672834107,4
10.68178029671612,-0.361091564507675,4
10.69178196366061,-0.43344372961714095,4
10.701783630605101,-0.46301807010095947,4
10.711785297549593,-0.5327121985059309,4
10.721786964494083,-0.5886444513537633,4
10.731788631438574,-0.6419105284116244,4
10.741790298383064,-0.6638292735957364,4
10.751791965327556,-0.7246536262355777,4
10.761793632272045,-0.7328682273232163,4
10.771795299216537,-0.7602021870471254,4
10.781796966161027,-0.7818938769216958,4
10.791798633105518,-0.7675381359657636,4
10.801800300050008,-0.7673748033924063,4
10.8118019669945,-0.7509054369073289,4
10.82180363393899,-0.7168915623746795,4
10.831805300883481,-0.7066919189143527,4
10.841806967827972,-0.6480254538033323,4
10.851808634772462,-0.5937381984799776,4
10.861810301716954,-0.515576595153904,4
10.871811968661444,-0.44915001601867316,4
10.881813635605935,-0.352773696361083,4
10.891815302550425,-0.28674448019412313,4
10.901816969494917,-0.19562346022341434,4
10.911818636439406,-0.07177881205001262,4
10.921820303383898,0.012365226175105213,4
10.931821970328388,0.10464531858841164,4
10.94182363727288,0.1984205546538484,4
10.95182530421737,0.29960124088599716,4
10.96182697116186,0.37868871593387027,4
10.971828638106352,0.4691025034304849,4
10.981830305050842,0.5276777772379464,4
10.991831971995333,0.5915248295979921,4
11.001833638939823,0.6278738331070255,4
11.011835305884315,0.6990192135041849,4
11.021836972828805,0.7291136515957349,4
11.031838639773296,0.7683701869921339,4
11.041840306717786,0.7801303306547983,4
11.051841973662277,0.7783704819660129,4
11.061843640606769,0.7767167338152859,4
11.071845307551259,0.7687559243940589,4
11.08184697449575,0.7293214739792162,4
11.09184864144024,0.70062994206497,4
11.101850308384732,0.6649708146145586,4
11.111851975329222,0.6279288713831986,4
11.121853642273713,0.5743444641836094,4
11.131855309218203,0.5118538261169264,4
11.141856976162694,0.4599940260178257,4
11.151858643107184,0.4297947347721327,4
11.161860310051676,0.3496721323279349,4
11.171861976996166,0.28613869908202766,4
11.181863643940657,0.2663342513631756,4
11.191865310885149,0.20788712942659485,4
11.201866977829638,0.16048779894531018,4
11.21186864477413,0.12485033541436436,4
11.22187031171862,0.09193879398298278,4
11.231871978663111,0.051611132595654294,4
11.241873645607601,0.029861146846431392,4
11.251875312552093,0.0320900449472843,4
11.261876979496583,0.008651076384861836,4
11.271878646441074,0.01139205690298902,4
11.281880313385564,0.004125321803038709,4
11.291881980330055,-0.01282025356652204,4
11.301883647274547,-0.016280324101158584,4
11.311885314219037,-0.009485385582640393,4
11.321886981163528,0.002492436823897518,4
11.331888648108018,-0.00805318517494383,4
11.34189031505251,0.011878407887536236,4
11.351891981997,-0.01479905701762185,4
11.361893648941491,-0.0267203707528613,4
11.37189531588598,-0.023060535511352585,4
11.381896982830472,-0.061167851317362035,4
11.391898649774962,-0.07182689056823476,4
11.401900316719454,-0.09638365100098316,4
11.411901983663945,-0.13662479328179508,4
11.421903650608435,-0.17849992049485433,4
11.431905317552927,-0.22138064367721055,4
11.441906984497416,-0.2741308032038015,4
11.451908651441908,-0.33024429353850715,4
11.461910318386398,-0.3470725623104463,4
11.47191198533089,-0.43118948310368704,4
11.481913652275379,-0.4946725943904007,4
11.49191531921987,-0.5426697484591432,4
11.50191698616436,-0.5771069261290601,4
11.511918653108852,-0.6406656980772618,4
11.521920320053344,-0.6638819895904453,4
11.531921986997833,-0.7128925410972478,4
11.541923653942325,-0.7508553001165306,4
11.551925320886815,-0.7553093808361088,4
11.561926987831306,-0.7825523059228261,4
11.571928654775796,-0.7629279856306833,4
11.581930321720288,-0.7629091104526855,4
11.591931988664777,-0.7636053400642185,4
11.601933655609269,-0.7362298408368759,4
11.611935322553759,-0.6895566182622498,4
11.62193698949825,-0.6415891710597907,4
11.63193865644274,-0.5926210169664169,4
11.641940323387232,-0.518450371517208,4
11.651941990331723,-0.43375565313929343,4
11.661943657276213,-0.35795926972252967,4
11.671945324220705,-0.26178398469015657,4
11.681946991165194,-0.18981683345630862,4
11.691948658109686,-0.09317355288466975,4
11.701950325054176,0.019465795839841118,4
11.711951991998667,0.1220629673140323,4
11.721953658943157,0.2027871409324283,4
11.731955325887649,0.29806676950645794,4
11.741956992832138,0.38763853471401066,4
11.75195865977663,0.4568251509276533,4
11.761960326721121,0.5264261550862358,4
11.771961993665611,0.5912579442562446,4
11.781963660610103,0.6574445538160414,4
11.791965327554593,0.6934778141202279,4
11.801966994499084,0.7337577365457002,4
11.811968661443574,0.7609492049238892,4
11.821970328388065,0.7774088510551682,4
11.831971995332555,0.7984399146583033,4
11.841973662277047,0.7820432927854192,4
11.851975329221537,0.745783101206701,4
11.861976996166028,0.7290655946495705,4
11.87197866311052,0.6927041919106628,4
11.88198033005501,0.6574119084186411,4
11.891981996999501,0.6109259941592143,4
11.90198366394399,0.5688946150018577,4
11.911985330888482,0.5110445803429459,4
11.921986997832972,0.4609491068897589,4
11.931988664777464,0.4121266236926733,4
11.941990331721954,0.33319588185698673,4
11.951991998666445,0.29428662290065816,4
11.961993665610935,0.2716966183612172,4
11.971995332555426,0.21302446952002868,4
11.981996999499916,0.18118868631864424,4
11.991998666444408,0.14806691094465413,4
12.0020003333889,0.10154392600777563,4
12.01200200033339,0.061596589455209586,4
12.02200366727788,0.0369386640128889,4
12.03200533422237,0.019271534991514176,4
12.042007001166862,0.037200389641416115,4
12.052008668111352,0.013881731125627284,4
12.062010335055843,-0.004747538127908776,4
12.072012002000333,0.015750552657983856,4
12.082013668944825,0.0019682084894219886,4
12.092015335889315,-0.00415602385334112,4
12.102017002833806,-0.0027538338958413705,4
12.112018669778298,-0.012586119081318504,4
12.122020336722787,-0.01679354626453848,4
12.132022003667279,-0.020328949364232712,4
12.142023670611769,-0.023415995003884856,4
12.15202533755626,-0.053416131761001254,4
12.16202700450075,-0.053476768055737964,4
12.172028671445242,-0.09146233484434335,4
12.182030338389731,-0.10259920934587466,4
12.192032005334223,-0.14061119528847096,4
12.202033672278713,-0.16788390221250166,4
12.212035339223204,-0.21618281034335007,4
12.222037006167696,-0.2731590606082555,4
12.232038673112186,-0.32360645552399053,4
12.242040340056677,-0.3608195632316943,4
12.252042007001167,-0.4226498285420314,4
12.262043673945659,-0.4812706195138199,4
12.272045340890148,-0.5352789624063696,4
12.28204700783464,-0.5812293324178059,4
12.29204867477913,-0.6283850883938022,4
12.302050341723621,-0.6809072601653322,4
12.312052008668111,-0.7030940092780265,4
12.322053675612603,-0.7438847836042696,4
12.332055342557092,-0.7701582569779151,4
12.342057009501584,-0.7807156570746449,4
12.352058676446076,-0.7704815708804493,4
12.362060343390565,-0.7727002226903821,4
12.372062010335057,-0.743667135272124,4
12.382063677279547,-0.7334374438134547,4
12.392065344224038,-0.6951346595643293,4
12.402067011168528,-0.6515561033500563,4
12.41206867811302,-0.5778855646014233,4
12.42207034505751,-0.5052814265561705,4
12.432072012002001,-0.4461946849396535,4
12.44207367894649,-0.3725666372347054,4
12.452075345890982,-0.2554632839412907,4
12.462077012835474,-0.18225151421328223,4
12.472078679779964,-0.08091350489622288,4
12.482080346724455,0.0217202508386168,4
12.492082013668945,0.10573644906947516,4
12.502083680613437,0.21135394195143933,4
12.512085347557926,0.30011385266167345,4
12.522087014502418,0.3511971703256212,4
12.532088681446908,0.46779669147145586,4
12.5420903483914,0.5531056952875896,4
12.552092015335889,0.5954125788278415,4
12.56209368228038,0.646221713642655,4
12.572095349224872,0.6903626488714641,4
12.582097016169362,0.7330351220092594,4
12.592098683113853,0.7686958771401157,4
12.602100350058343,0.7792932297735019,4
12.612102017002835,0.7773629528310976,4
12.622103683947325,0.7742863237155951,4
12.632105350891816,0.7528641044075093,4
12.642107017836306,0.7383339433792402,4
12.652108684780798,0.7009119983347487,4
12.662110351725287,0.6537192282356683,4
12.672112018669779,0.6268979705560402,4
12.682113685614269,0.5647793860460649,4
12.69211535255876,0.4942717913071959,4
12.702117019503252,0.47018607164314624,4
12.712118686447742,0.40885444869094667,4
12.722120353392233,0.3592721768612241,4
12.732122020336723,0.2994602018203461,4
12.742123687281214,0.25454582852530766,4
12.752125354225704,0.18946286875093155,4
12.762127021170196,0.15699450582522154,4
12.772128688114686,0.1291411393737353,4
12.782130355059177,0.07676948135479729,4
12.792132022003667,0.07119423767136843,4
12.802133688948159,0.03718530095976577,4
12.81213535589265,0.025370777438061057,4
12.82213702283714,0.017488661357610857,4
12.832138689781631,0.02254312682093109,4
12.842140356726121,0.0016351301837478805,4
12.852142023670613,-0.018007981532436806,4
12.862143690615103,0.010535126397308968,4
12.872145357559594,-0.015755099506180578,4
12.882147024504084,-0.008780889744430212,4
12.892148691448575,-0.0009056578648721316,4
12.902150358393065,-0.005698159418167338,4
12.912152025337557,-0.0019362975058836874,4
12.922153692282048,-0.010231749078050273,4
12.932155359226538,-0.04582307202973923,4
12.94215702617103,-0.05407892923572528,4
12.95215869311552,-0.07400496944909933,4
12.962160360060011,-0.0987459605031836,4
12.9721620270045,-0.11057422734353128,4
12.982163693948992,-0.1820817125408028,4
12.992165360893482,-0.2299449851212803,4
13.002167027837974,-0.25305181234798463,4
13.012168694782464,-0.3198352196598799,4
13.022170361726955,-0.3667325902289951,4
13.032172028671445,-0.4162350316633781,4
13.042173695615936,-0.49134552424813754,4
13.052175362560428,-0.5403263298048316,4
13.062177029504918,-0.5736777474314017,4
13.07217869644941,-0.6248658580754655,4
13.0821803633939,-0.6762016078605888,4
13.09218203033839,-0.698845963743177,4
13.10218369728288,-0.728568046303544,4
13.112185364227372,-0.7425173656526889,4
13.122187031171862,-0.7721643303225704,4
13.132188698116353,-0.794734477770988,4
13.142190365060843,-0.7633043712975012,4
13.152192032005335,-0.7653292340291974,4
13.162193698949826,-0.7346443808298969,4
13.172195365894316,-0.6841813883306748,4
13.182197032838808,-0.6382373871771285,4
13.192198699783297,-0.5843408906773577,4
13.202200366727789,-0.5162583621391942,4
13.212202033672279,-0.43666233064123006,4
13.22220370061677,-0.35631043777591037,4
13.23220536756126,-0.2756179810384858,4
13.242207034505752,-0.17596886582356844,4
13.252208701450241,-0.08846453002873318,4
13.262210368394733,0.024085100656654077,4
13.272212035339225,0.09036846201698692,4
13.282213702283714,0.18683747957529104,4
13.292215369228206,0.2901294245933649,4
13.302217036172696,0.3799800360056085,4
13.312218703117187,0.47651127381077896,4
13.322220370061677,0.5397539146216963,4
13.332222037006169,0.604682125560631,4
13.342223703950658,0.6690078011408878,4
13.35222537089515,0.7013186501213771,4
13.36222703783964,0.737102240130589,4
13.372228704784131,0.7706644292877323,4
13.382230371728621,0.780666620591317,4
13.392232038673113,0.771672274273892,4
13.402233705617604,0.7698756191948115,4
13.412235372562094,0.744393761804719,4
13.422237039506586,0.725009227704874,4
13.432238706451075,0.7023940571381225,4
13.442240373395567,0.670700329801484,4
13.452242040340057,0.6051093738161715,4
13.462243707284548,0.5567162794849453,4
13.472245374229038,0.5400806175986805,4
13.48224704117353,0.46932119001375755,4
13.49224870811802,0.3894449822503629,4
13.502250375062511,0.34940657131210584,4
13.512252042007002,0.2963912756647511,4
13.522253708951492,0.25934770509238975,4
13.532255375895984,0.18637742843806354,4
13.542257042840474,0.17543185158986832,4
13.552258709784965,0.1151430734982742,4
13.562260376729455,0.11079019581682795,4
13.572262043673947,0.08148364921237786,4
13.582263710618436,0.05758941091162366,4
13.592265377562928,0.030386545354701165,4
13.602267044507418,0.0012066687205131432,4
13.61226871145191,0.022651070134142918,4
13.6222703783964,0.01840546722301472,4
13.63227204534089,-0.006565615923656537,4
13.642273712285382,-0.006956458051156697,4
13.652275379229872,0.0009363004209420888,4
13.662277046174363,-0.005658752214942673,4
13.672278713118853,-0.0227299904555721,4
13.682280380063345,-0.007026915548273284,4
13.692282047007835,-0.009920263161149632,4
13.702283713952326,-0.006691750305180384,4
13.712285380896816,-0.03407466816721269,4
13.722287047841307,-0.04969781417015182,4
13.732288714785797,-0.08122615421199594,4
13.742290381730289,-0.10281676433390936,4
13.75229204867478,-0.14263438349616286,4
13.76229371561927,-0.18958873098007128,4
13.772295382563762,-0.21998487124824181,4
13.782297049508252,-0.2571651741669108,4
13.792298716452743,-0.3163376810875678,4
13.802300383397233,-0.3684005283863347,4
13.812302050341724,-0.42108370671671974,4
13.822303717286214,-0.48758069684466465,4
13.832305384230706,-0.5159712906339642,4
13.842307051175196,-0.5960759940862381,4
13.852308718119687,-0.6479301100715594,4
13.862310385064179,-0.6818378892770055,4
13.872312052008668,-0.7048887196747718,4
13.88231371895316,-0.7322150964354949,4
13.89231538589765,-0.7477146103433633,4
13.902317052842141,-0.7862877941886621,4
13.912318719786631,-0.7738631907159178,4
13.922320386731123,-0.7868291620111106,4
13.932322053675612,-0.7575005836709782,4
13.942323720620104,-0.7215438344473298,4
13.952325387564594,-0.6940390841861979,4
13.962327054509085,-0.6470095122969326,4
13.972328721453577,-0.5740703042181021,4
13.982330388398067,-0.5203905333557465,4
13.992332055342558,-0.4483476618771283,4
14.002333722287048,-0.3651634993944438,4
14.01233538923154,-0.2917011198224597,4
14.02233705617603,-0.1778862530278935,4
14.032338723120521,-0.07642935519536939,4
14.04234039006501,0.006405680530789937,4
14.052342057009502,0.11967600941854906,4
14.062343723953992,0.21953826090663592,4
14.072345390898484,0.30443400479122756,4
14.082347057842973,0.38409052725923276,4
14.092348724787465,0.4653854431315322,4
14.102350391731957,0.527336305304817,4
14.112352058676446,0.6115678756107191,4
14.122353725620938,0.6535057189879976,4
14.132355392565428,0.6941442826983986,4
14.14235705950992,0.7381495584522064,4
14.152358726454409,0.756246666714299,4
14.1623603933989,0.7679669954704296,4
14.17236206034339,0.7866508924432674,4
14.182363727287882,0.7526467223913581,4
14.192365394232372,0.7587027034036851,4
14.202367061176863,0.7311539885318799,4
14.212368728121355,0.6837364425202455,4
14.222370395065845,0.6482838372936568,4
14.232372062010336,0.6125092053784721,4
14.242373728954826,0.5662565071541383,4
14.252375395899318,0.5128759354308291,4
14.262377062843807,0.4550857089414362,4
14.272378729788299,0.3939755472340036,4
14.282380396732789,0.37069005699646207,4
14.29238206367728,0.29081233923280464,4
14.30238373062177,0.2551980164333966,4
14.312385397566262,0.19343374514458933,4
14.322387064510753,0.15947457900763443,4
14.332388731455243,0.12081843564126732,4
14.342390398399735,0.09771269579516409,4
14.352392065344224,0.056736229010686215,4
14.362393732288716,0.06655972182716999,4
14.372395399233206,0.02444961409398755,4
14.382397066177697,0.007562909780415744,4
14.392398733122187,0.01360453460648,4
14.402400400066679,0.005834997044967501,4
14.412402067011168,-0.011704624451181903,4
14.42240373395566,0.02375342203907519,4
14.432405400900151,-0.0064654653924384655,4
14.442407067844641,0.0024134071575638016,4
14.452408734789133,-0.008971971753238425,4
14.462410401733623,0.001007418962995086,4
14.472412068678114,0.010172216496318817,4
14.482413735622604,-0.029087628445568323,4
14.492415402567095,-0.02424644882478997,4
14.502417069511585,-0.05101997932158604,4
14.512418736456077,-0.08125748712212044,4
14.522420403400567,-0.10259841644443199,4
14.532422070345058,-0.13567206296447573,4
14.542423737289548,-0.17722683079847013,4
14.55242540423404,-0.20579905532534437,4
14.562427071178531,-0.2905466610804318,4
14.57242873812302,-0.318954002999583,4
14.582430405067512,-0.36031410844249456,4
14.592432072012002,-0.44030001738194324,4
14.602433738956494,-0.4901109454031624,4
14.612435405900984,-0.5229951976792336,4
14.622437072845475,-0.594878102205383,4
14.632438739789965,-0.6365105246892642,4
14.642440406734456,-0.6776644753990835,4
14.652442073678946,-0.7091727230486505,4
14.662443740623438,-0.7226930605121473,4
14.67244540756793,-0.7587060126226369,4
14.68244707451242,-0.7660294083314876,4
14.69244874145691,-0.785669399847669,4
14.7024504084014,-0.7569142633446673,4
14.712452075345892,-0.7583447888831895,4
14.722453742290382,-0.7285889892722042,4
14.732455409234873,-0.6753807207820129,4
14.742457076179363,-0.6552380967544352,4
14.752458743123855,-0.5757152386476654,4
14.762460410068345,-0.5111477639601854,4
14.772462077012836,-0.4225441525839222,4
14.782463743957328,-0.3588926045425919,4
14.792465410901817,-0.2658502545060212,4
14.802467077846309,-0.18622882398455437,4
14.812468744790799,-0.07874559945037744,4
14.82247041173529,0.017529956079111383,4
14.83247207867978,0.11425650468753805,4
14.842473745624272,0.18929004318636583,4
14.852475412568761,0.30219608935304987,4
14.862477079513253,0.3636536401290611,4
14.872478746457743,0.46209805914899243,4
14.882480413402234,0.528485596371072,4
14.892482080346724,0.6040855984450545,4
14.902483747291216,0.6743684607496594,4
14.912485414235707,0.7035732190846414,4
14.922487081180197,0.7338408047373297,4
14.932488748124689,0.7454932187561866,4
14.942490415069178,0.7772308012590955,4
14.95249208201367,0.770816735537613,4
14.96249374895816,0.7658246725735632,4
14.972495415902651,0.7790978918172043,4
14.982497082847141,0.7334258434068901,4
14.992498749791633,0.6976048696934193,4
15.002500416736122,0.6746325240835175,4
15.012502083680614,0.6191759204420093,4
15.022503750625106,0.5910016615283185,4
15.032505417569595,0.5190109871311104,4
15.042507084514087,0.45280906365665413,4
15.052508751458577,0.4153980092293599,4
15.062510418403068,0.36792519616400987,4
15.072512085347558,0.3137388137820961,4
15.08251375229205,0.2537412760271273,4
15.09251541923654,0.22506582222957885,4
15.102517086181031,0.16750114683003806,4
15.11251875312552,0.13639373533284677,4
15.122520420070012,0.10534064730510875,4
15.132522087014504,0.06704435673421191,4
15.142523753958994,0.04583427448222658,4
15.152525420903485,0.02429443146732514,4
15.162527087847975,0.013979983329555558,4
15.172528754792467,-0.005691083167828615,4
15.182530421736956,0.009922740913387032,4
15.192532088681448,0.003616824845459719,4
15.202533755625938,0.008002653592150416,4
15.21253542257043,-0.010027824771735087,4
15.222537089514919,-0.0005660535478655938,4
15.23253875645941,0.0100985961720163,4
15.2425404234039,-0.012159936456430579,4
15.252542090348392,0.0022359067182117914,4
15.262543757292883,-0.020928625730391077,4
15.272545424237373,-0.027697882386948026,4
15.282547091181865,-0.03932388181725806,4
15.292548758126355,-0.07796458841856586,4
15.302550425070846,-0.10313506692119276,4
15.312552092015336,-0.13061805319194358,4
15.322553758959828,-0.1811027681532734,4
15.332555425904317,-0.20340250206139263,4
15.342557092848809,-0.2599705734180585,4
15.352558759793299,-0.30885305239419436,4
15.36256042673779,-0.3606583564789217,4
15.372562093682282,-0.4292467298272159,4
15.382563760626772,-0.4811290123888209,4
15.392565427571263,-0.5237322656170591,4
15.402567094515753,-0.5808504915683023,4
15.412568761460244,-0.6354606827190182,4
15.422570428404734,-0.6866385264836719,4
15.432572095349226,-0.7180912111554408,4
15.442573762293716,-0.7247515927029533,4
15.452575429238207,-0.7591815849214707,4
15.462577096182697,-0.7736668187547507,4
15.472578763127188,-0.7782055715351731,4
15.48258043007168,-0.7843891968992616,4
15.49258209701617,-0.7717320234547528,4
15.502583763960661,-0.7311217943301491,4
15.512585430905151,-0.696767974573732,4
15.522587097849643,-0.6354310239613505,4
15.532588764794133,-0.5850683951139269,4
15.542590431738624,-0.5329986732401837,4
15.552592098683114,-0.46618610492490603,4
15.562593765627605,-0.3524882854408623,4
15.572595432572095,-0.25640418291638684,4
15.582597099516587,-0.17715485347283422,4
15.592598766461077,-0.07619661083423931,4
15.602600433405568,0.011232406250133598,4
15.61260210035006,0.12269003148652613,4
15.62260376729455,0.20800530065503414,4
15.632605434239041,0.29353475506893434,4
15.64260710118353,0.3745880765220457,4
15.652608768128022,0.4715840462832014,4
15.662610435072512,0.5405253319350406,4
15.672612102017004,0.5954736309104401,4
15.682613768961494,0.6525768671712271,4
15.692615435905985,0.6980194222152536,4
15.702617102850475,0.7435463245264363,4
15.712618769794966,0.7724366630489431,4
15.722620436739458,0.7635700534059005,4
15.732622103683948,0.7892383999093453,4
15.74262377062844,0.7738274287249663,4
15.752625437572929,0.7491253825030805,4
15.76262710451742,0.7167289566401951,4
15.77262877146191,0.7060528407031547,4
15.782630438406402,0.668917688411166,4
15.792632105350892,0.6027211665525618,4
15.802633772295383,0.5530383733347815,4
15.812635439239873,0.4950851947076738,4
15.822637106184365,0.47698383019717455,4
15.832638773128856,0.3945677774514155,4
15.842640440073346,0.3607846722849525,4
15.852642107017838,0.30934974494076917,4
15.862643773962327,0.23344606213659133,4
15.872645440906819,0.20692578700523423,4
15.882647107851309,0.1777928234087583,4
15.8926487747958,0.10982216072321777,4
15.90265044174029,0.10215295717752573,4
15.912652108684782,0.07668873726081726,4
15.922653775629271,0.050725373153418574,4
15.932655442573763,0.02326474320760707,4
15.942657109518253,0.02597267797807796,4
15.952658776462744,0.001869728116717556,4
15.962660443407236,0.005107456656495558,4
15.972662110351726,0.006933739821595887,4
15.982663777296217,0.006448266176248278,4
15.992665444240707,-0.007510369135571805,4
16.002667111185197,0.0039260579426568885,4
16.01266877812969,-0.002180789216140114,4
16.02267044507418,-0.017070746269681344,4
16.03267211201867,-0.010150605530987273,4
16.04267377896316,-0.026683792958224137,4
16.052675445907653,-0.03077308854397659,4
16.062677112852143,-0.0860344597011115,4
16.072678779796632,-0.07920722383479464,4
16.082680446741126,-0.09887924070280911,4
16.092682113685616,-0.1437314473989375,4
16.102683780630105,-0.17761547134411226,4
16.112685447574595,-0.2285785743364399,4
16.12268711451909,-0.2580850646900362,4
16.132688781463578,-0.31273677983868114,4
16.142690448408068,-0.372797291401882,4
16.152692115352558,-0.42403930292850645,4
16.16269378229705,-0.4619950670991415,4
16.17269544924154,-0.5315020569432928,4
16.18269711618603,-0.5795409483426427,4
16.192698783130524,-0.6362013984266143,4
16.202700450075014,-0.669049049350257,4
16.212702117019504,-0.7055962389217603,4
16.222703783963993,-0.7348300202470661,4
16.232705450908487,-0.7685167064554785,4
16.242707117852976,-0.7775989833582554,4
16.252708784797466,-0.7803806856719679,4
16.262710451741956,-0.7875328489438135,4
16.27271211868645,-0.7535817505545757,4
16.28271378563094,-0.7247298953728138,4
16.29271545257543,-0.6950372056844463,4
16.302717119519922,-0.6436660125904136,4
16.312718786464412,-0.5889986433692581,4
16.322720453408902,-0.5251223305657985,4
16.33272212035339,-0.42429627163244404,4
16.342723787297885,-0.3688686987565299,4
16.352725454242375,-0.28255970231701827,4
16.362727121186865,-0.17508768851779083,4
16.372728788131354,-0.07368440734300766,4
16.382730455075848,0.02930604956902522,4
16.392732122020337,0.11759363391059946,4
16.402733788964827,0.1943812643269889,4
16.41273545590932,0.29041215345457355,4
16.42273712285381,0.37544976821356185,4
16.4327387897983,0.468981798578379,4
16.44274045674279,0.5466073278567146,4
16.452742123687283,0.6014226606761981,4
16.462743790631773,0.6621823190173902,4
16.472745457576263,0.6938801933376398,4
16.482747124520753,0.7376505258578535,4
16.492748791465246,0.7569163220222417,4
16.502750458409736,0.7855804599938118,4
16.512752125354226,0.7578770304961613,4
16.522753792298715,0.7736110537305924,4
16.53275545924321,0.7406422971843879,4
16.5427571261877,0.7214258514769676,4
16.55275879313219,0.688868242336762,4
16.56276046007668,0.6527076980090468,4
16.57276212702117,0.6230885782150788,4
16.58276379396566,0.5735008882497664,4
16.59276546091015,0.5010601430794042,4
16.602767127854644,0.45868362956740205,4
16.612768794799134,0.41490315559924895,4
16.622770461743624,0.3662616099750522,4
16.632772128688114,0.3037710287032697,4
16.642773795632607,0.25861214865989474,4
16.652775462577097,0.21195368314550686,4
16.662777129521587,0.15380274672832214,4
16.67277879646608,0.1311276441830959,4
16.68278046341057,0.09090500440142073,4
16.69278213035506,0.07423436017806737,4
16.70278379729955,0.03956247696316253,4
16.712785464244043,0.031472790842032375,4
16.722787131188532,0.013383340248205191,4
16.732788798133022,0.004211015500170144,4
16.742790465077512,-0.0040611135901565745,4
16.752792132022005,0.0009355363210652728,4
16.762793798966495,0.0019398619372517053,4
16.772795465910985,-0.023308866870677337,4
16.782797132855478,-0.013051685643119626,4
16.792798799799968,-0.005334548939014584,4
16.802800466744458,-0.017695263909213742,4
16.812802133688947,-0.01910930844251946,4
16.82280380063344,-0.022183787707457447,4
16.83280546757793,-0.04243466539113644,4
16.84280713452242,-0.033317680479992506,4
16.85280880146691,-0.06784094802575866,4
16.862810468411404,-0.1161001049062747,4
16.872812135355893,-0.15431734046811557,4
16.882813802300383,-0.19069570518452453,4
16.892815469244876,-0.2305659968973808,4
16.902817136189366,-0.28189830185579146,4
16.912818803133856,-0.31346164231263524,4
16.922820470078346,-0.35841917818692576,4
16.93282213702284,-0.4141933258097077,4
16.94282380396733,-0.4860607236105674,4
16.95282547091182,-0.5268407719818688,4
16.96282713785631,-0.5787600406126236,4
16.972828804800802,-0.628236912926022,4
16.98283047174529,-0.6871333383265756,4
16.99283213868978,-0.7072898738064116,4
17.002833805634275,-0.732123744573721,4
17.012835472578764,-0.752237009468655,4
17.022837139523254,-0.7757168547012336,4
17.032838806467744,-0.8109894956829629,4
17.042840473412237,-0.7703558316485571,4
17.052842140356727,-0.7453735667306001,4
17.062843807301217,-0.7303473250490712,4
17.072845474245707,-0.6881827332500948,4
17.0828471411902,-0.6419119221330291,4
17.09284880813469,-0.5749433688258658,4
17.10285047507918,-0.5198302038210478,4
17.112852142023673,-0.4373842511686094,4
17.122853808968163,-0.3538863045048243,4
17.132855475912653,-0.2686096991688277,4
17.142857142857142,-0.17228990135126387,4
17.152858809801636,-0.0740923502957728,4
17.162860476746125,0.024027894321694936,4
17.172862143690615,0.10743930801055591,4
17.182863810635105,0.21268046700670878,4
17.1928654775796,0.32146709291178543,4
17.202867144524088,0.38920662042512616,4
17.212868811468578,0.4569194909740907,4
17.222870478413068,0.531225766895877,4
17.23287214535756,0.5942588632524161,4
17.24287381230205,0.6539347073411025,4
17.25287547924654,0.698581674295665,4
17.262877146191034,0.740533286252842,4
17.272878813135524,0.7674145221947732,4
17.282880480080014,0.7637630493806976,4
17.292882147024503,0.7767990692285465,4
17.302883813968997,0.7843907785738792,4
17.312885480913486,0.7541494133321544,4
17.322887147857976,0.726079351311037,4
17.332888814802466,0.711967868721797,4
17.34289048174696,0.6585530197319011,4
17.35289214869145,0.6164300269174081,4
17.36289381563594,0.5796087705555028,4
17.372895482580432,0.5018351488015373,4
17.382897149524922,0.44991081837050106,4
17.392898816469412,0.4048728151273772,4
17.4029004834139,0.3549805707566888,4
17.412902150358395,0.30034958692374825,4
17.422903817302885,0.24349192865379748,4
17.432905484247375,0.20688524719106205,4
17.442907151191864,0.15776595569183433,4
17.452908818136358,0.13766641097974391,4
17.462910485080847,0.09930401777372562,4
17.472912152025337,0.0589854766601484,4
17.48291381896983,0.047301104483678816,4
17.49291548591432,0.03725178624018021,4
17.50291715285881,0.012937115100082882,4
17.5129188198033,0.02393876052531316,4
17.522920486747793,-0.004767071417522889,4
17.532922153692283,0.008779307104570045,4
17.542923820636773,-0.004123251978661471,4
17.552925487581263,0.008723512437112951,4
17.562927154525756,-0.007007815522977687,4
17.572928821470246,-0.013246066460081586,4
17.582930488414735,0.00820530295754112,4
17.59293215535923,-0.0018853640311287338,4
17.60293382230372,-0.026388547007688577,4
17.61293548924821,-0.03993569731122108,4
17.622937156192698,-0.059347259492337774,4
17.63293882313719,-0.063979699425909,4
17.64294049008168,-0.11285993387279704,4
17.65294215702617,-0.14672688162755013,4
17.66294382397066,-0.18136658064521868,4
17.672945490915154,-0.2184519509281831,4
17.682947157859644,-0.2748479637437163,4
17.692948824804134,-0.306993983076298,4
17.702950491748627,-0.3517310643391817,4
17.712952158693117,-0.42122279422539005,4
17.722953825637607,-0.47583504486432815,4
17.732955492582096,-0.5328051378488605,4
17.74295715952659,-0.5792309518965928,4
17.75295882647108,-0.6412756883801005,4
17.76296049341557,-0.6781655838054879,4
17.77296216036006,-0.7078446423563051,4
17.782963827304552,-0.7456266465947591,4
17.792965494249042,-0.7746343303550707,4
17.802967161193532,-0.7840521739474361,4
17.812968828138025,-0.7764027538883873,4
17.822970495082515,-0.7649341203536932,4
17.832972162027005,-0.7458125035999689,4
17.842973828971495,-0.7192553479591424,4
17.852975495915988,-0.6876076669652256,4
17.862977162860478,-0.6355000018253959,4
17.872978829804968,-0.6055519865139857,4
17.882980496749457,-0.5083336014979015,4
17.89298216369395,-0.4405910907016362,4
17.90298383063844,-0.3359883601524841,4
17.91298549758293,-0.2668101434798384,4
17.92298716452742,-0.17267213089994066,4
17.932988831471913,-0.08117710830137942,4
17.942990498416403,-0.005487719290481002,4
17.952992165360893,0.1194960010168465,4
17.962993832305386,0.2155207844014431,4
17.972995499249876,0.30031260826278827,4
17.982997166194366,0.3875944758378659,4
17.992998833138856,0.465458904852209,4
18.00300050008335,0.5449812533243487,4
18.01300216702784,0.5945825475404003,4
18.02300383397233,0.6731180964140464,4
18.03300550091682,0.7096439749746206,4
18.04300716786131,0.7170544396063826,4
18.0530088348058,0.7677643771231297,4
18.06301050175029,0.7806735218480545,4
18.073012168694785,0.7681807763130216,4
18.083013835639274,0.761545431379691,4
18.093015502583764,0.7564437246989724,4
18.103017169528254,0.7337402358697418,4
18.113018836472747,0.7121931195192014,4
18.123020503417237,0.651751230831788,4
18.133022170361727,0.625341873325353,4
18.143023837306217,0.5771383550279531,4
18.15302550425071,0.5132800706264697,4
18.1630271711952,0.45974306860383085,4
18.17302883813969,0.3843499551648215,4
18.183030505084183,0.36114329333007306,4
18.193032172028673,0.2997463354888046,4
18.203033838973163,0.23940690259901873,4
18.213035505917652,0.22023713954671065,4
18.223037172862146,0.16069426104057702,4
18.233038839806635,0.12488900093666072,4
18.243040506751125,0.08999027745196483,4
18.253042173695615,0.06284891722960999,4
18.26304384064011,0.03256030065577801,4
18.273045507584598,0.02108597331922816,4
18.283047174529088,-0.0037648404802280433,4
18.29304884147358,0.00810274332615726,4
18.30305050841807,0.005484117228478727,4
18.31305217536256,-0.004723930041350311,4
18.32305384230705,-0.013646328289135765,4
18.333055509251544,0.008375711830326168,4
18.343057176196034,-0.006237411124156526,4
18.353058843140523,-0.013759673868615398,4
18.363060510085013,0.006399804853721712,4
18.373062177029507,-0.019738568198342722,4
18.383063843973996,-0.011094351775216964,4
18.393065510918486,-0.04796228290373723,4
18.40306717786298,-0.044461312534357846,4
18.41306884480747,-0.07510556665387517,4
18.42307051175196,-0.09604084081882931,4
18.43307217869645,-0.1318493754855442,4
18.443073845640942,-0.17584758389874566,4
18.453075512585432,-0.23750978211851426,4
18.463077179529922,-0.2771119980241054,4
18.47307884647441,-0.31272674109549065,4
18.483080513418905,-0.3817337270146828,4
18.493082180363395,-0.421736287240896,4
18.503083847307884,-0.4862078319088997,4
18.513085514252378,-0.5484827180729454,4
18.523087181196868,-0.5872553000756733,4
18.533088848141357,-0.6257643788221174,4
18.543090515085847,-0.6859362950078701,4
18.55309218203034,-0.702286932952632,4
18.56309384897483,-0.7538090519946282,4
18.57309551591932,-0.7458266965543938,4
18.58309718286381,-0.761448946523709,4
18.593098849808303,-0.7779218004473502,4
18.603100516752793,-0.7846553257744292,4
18.613102183697283,-0.7504976991784118,4
18.623103850641776,-0.7247263236183294,4
18.633105517586266,-0.6597682471739303,4
18.643107184530756,-0.6274817470741098,4
18.653108851475245,-0.5792368977855347,4
18.66311051841974,-0.5133782696281447,4
18.67311218536423,-0.45012299182978766,4
18.68311385230872,-0.35110907308061456,4
18.693115519253208,-0.26867087520418975,4
18.7031171861977,-0.1805051908368055,4
18.71311885314219,-0.07439510704294518,4
18.72312052008668,0.02174086799907104,4
18.73312218703117,0.11589912497088822,4
18.743123853975664,0.22688201088255852,4
18.753125520920154,0.3108604930201829,4
18.763127187864644,0.3850428584380784,4
18.773128854809137,0.4784082134263409,4
18.783130521753627,0.5292207957059294,4
18.793132188698117,0.6079278512079612,4
18.803133855642606,0.6662563462203062,4
18.8131355225871,0.7077933743847326,4
18.82313718953159,0.7392373575770653,4
18.83313885647608,0.776520511310435,4
18.84314052342057,0.7514206460157855,4
18.853142190365062,0.7758664490681316,4
18.863143857309552,0.7782675179974775,4
18.873145524254042,0.7514666775455803,4
18.883147191198535,0.7087967260040348,4
18.893148858143025,0.7013927058967826,4
18.903150525087515,0.6762836931395704,4
18.913152192032005,0.6194099093859258,4
18.923153858976498,0.5801470934580297,4
18.933155525920988,0.5249930910077953,4
18.943157192865478,0.46819589011269286,4
18.953158859809967,0.4182357651003721,4
18.96316052675446,0.34741720892128725,4
18.97316219369895,0.2997337570823645,4
18.98316386064344,0.2521018623693643,4
18.993165527587934,0.19991592849100975,4
19.003167194532423,0.16394130544072194,4
19.013168861476913,0.1448659426018206,4
19.023170528421403,0.08029039377143017,4
19.033172195365896,0.052808940916739454,4
19.043173862310386,0.05805898100896985,4
19.053175529254876,0.03208701842543743,4
19.063177196199366,-0.0015710913608767661,4
19.07317886314386,0.013343086386649043,4
19.08318053008835,0.011019010347984026,4
19.09318219703284,0.009086326604671893,4
19.103183863977332,0.023360470569500344,4
19.11318553092182,0.00045721483033920457,4
19.12318719786631,-0.015193583350219857,4
19.1331888648108,0.004870614298613448,4
19.143190531755295,-0.0010495637945812696,4
19.153192198699784,-0.018444469404867988,4
19.163193865644274,-0.017847337359580585,4
19.173195532588764,-0.052116484761639305,4
19.183197199533257,-0.05553446130977726,4
19.193198866477747,-0.0818328590833424,4
19.203200533422237,-0.0857046569796813,4
19.21320220036673,-0.14446745080624768,4
19.22320386731122,-0.1841720373869817,4
19.23320553425571,-0.22662631005447773,4
19.2432072012002,-0.28310626702744035,4
19.253208868144693,-0.3137461600909331,4
19.263210535089183,-0.36772926033961095,4
19.273212202033672,-0.4390822625347662,4
19.283213868978162,-0.4727952836256683,4
19.293215535922656,-0.5288200744509443,4
19.303217202867145,-0.5749490485461742,4
19.313218869811635,-0.6426083170298594,4
19.32322053675613,-0.6790482840092306,4
19.33322220370062,-0.7111716589721403,4
19.343223870645108,-0.7515164651916498,4
19.353225537589598,-0.7607986681196564,4
19.36322720453409,-0.7668598443128023,4
19.37322887147858,-0.7944839772339555,4
19.38323053842307,-0.7768387750012475,4
19.39323220536756,-0.7437229207471318,4
19.403233872312054,-0.7373844510762757,4
19.413235539256544,-0.682992341029472,4
19.423237206201033,-0.6448053216718497,4
19.433238873145523,-0.5700664711903626,4
19.443240540090017,-0.4984949921346844,4
19.453242207034506,-0.44050277902417456,4
19.463243873978996,-0.33242861655929723,4
19.47324554092349,-0.254813520940247,4
19.48324720786798,-0.16192800253245232,4
19.49324887481247,-0.07799897500350735,4
19.50325054175696,0.003078406955316606,4
19.513252208701452,0.10873122262154213,4
19.523253875645942,0.20669048877292365,4
19.53325554259043,0.30500601895953944,4
19.54325720953492,0.389569563258132,4
19.553258876479415,0.46793485556148046,4
19.563260543423905,0.5534675577200485,4
19.573262210368394,0.6109162049324265,4
19.583263877312888,0.676387313081625,4
19.593265544257378,0.6851170088173429,4
19.603267211201867,0.7506130778043113,4
19.613268878146357,0.7612085256667387,4
19.62327054509085,0.777039540179426,4
19.63327221203534,0.7822036221435235,4
19.64327387897983,0.7718441515336879,4
19.65327554592432,0.749731284633489,4
19.663277212868813,0.7343815596505545,4
19.673278879813303,0.7034524627381382,4
19.683280546757793,0.6703782570986583,4
19.693282213702286,0.6086751206430878,4
19.703283880646776,0.5768036187953439,4
19.713285547591266,0.5173961221150951,4
19.723287214535755,0.4560147906525828,4
19.73328888148025,0.4128657539539235,4
19.74329054842474,0.3552717972149142,4
19.75329221536923,0.3251826997182315,4
19.763293882313718,0.2606661554561807,4
19.77329554925821,0.20764665742893357,4
19.7832972162027,0.1645857362550506,4
19.79329888314719,0.13722232408361,4
19.803300550091684,0.10006386658051239,4
19.813302217036174,0.06494876511668057,4
19.823303883980664,0.035674136588700514,4
19.833305550925154,0.03319029087061115,4
19.843307217869647,0.0015497870215301773,4
19.853308884814137,0.03522565000356295,4
19.863310551758627,0.02346772869405479,4
19.873312218703116,-0.0061971258453367255,4
19.88331388564761,0.0029172057610632844,4
19.8933155525921,-0.005071966415057702,4
19.90331721953659,0.016799308642635166,4
19.913318886481083,0.0061018066809237215,4
19.923320553425572,0.0002576247155346408,4
19.933322220370062,-0.019564463642056735,4
19.943323887314552,-0.015667441820831927,4
19.953325554259045,-0.031256039509456796,4
19.963327221203535,-0.056061307178762634,4
19.973328888148025,-0.08024422663073738,4
19.983330555092515,-0.09495790409570216,4
19.993332222037008,-0.13241504195770099,4
20.003333888981498,-0.171561825536236,4
20.013335555925988,-0.2291551198201121,4
20.02333722287048,-0.27130558580985614,4
20.03333888981497,-0.3057947037210547,4
20.04334055675946,-0.3611274420643533,4
20.05334222370395,-0.4340497611927828,4
20.063343890648444,-0.48768502827444504,4
20.073345557592933,-0.5320544406105362,4
20.083347224537423,-0.5795684757524299,4
20.093348891481913,-0.6166992940300167,4
20.103350558426406,-0.6729424399344786,4
20.113352225370896,-0.7008591036664268,4
20.123353892315386,-0.7665734304072558,4
20.133355559259876,-0.7653806903964959,4
20.14335722620437,-0.7841676094937705,4
20.15335889314886,-0.7824346825452797,4
20.16336056009335,-0.7607662259388519,4
20.173362227037842,-0.7414806575815894,4
20.18336389398233,-0.7323509289579466,4
20.19336556092682,-0.6837691771868003,4
20.20336722787131,-0.643920736034367,4
20.213368894815805,-0.5996919636945776,4
20.223370561760294,-0.501222143200373,4
20.233372228704784,-0.4312413376246209,4
20.243373895649274,-0.376343802189274,4
20.253375562593767,-0.2758408052337309,4
20.263377229538257,-0.170459394270866,4
20.273378896482747,-0.08657097834258724,4
20.28338056342724,0.01159089603944035,4
20.29338223037173,0.13692239249576588,4
20.30338389731622,0.21910262541241943,4
20.31338556426071,0.3120367778750965,4
20.323387231205203,0.3796909568081965,4
20.333388898149693,0.4575483986196435,4
20.343390565094182,0.5344404381860108,4
20.353392232038672,0.587486216919315,4
20.363393898983166,0.685034479260654,4
20.373395565927655,0.7077409737075007,4
20.383397232872145,0.760582474252292,4
20.39339889981664,0.7607992019066085,4
20.40340056676113,0.7817019868213569,4
20.413402233705618,0.7677384648317045,4
20.423403900650108,0.7930088159285065,4
20.4334055675946,0.7435416561242854,4
20.44340723453909,0.7287856270640589,4
20.45340890148358,0.6884208803709413,4
20.46341056842807,0.6612594447730821,4
20.473412235372564,0.6028373883439959,4
20.483413902317054,0.5752580230151264,4
20.493415569261543,0.5299525037096994,4
20.503417236206037,0.45330609184425424,4
20.513418903150527,0.4047405413629718,4
20.523420570095016,0.3392138838668242,4
20.533422237039506,0.3040618420681662,4
20.543423903984,0.2502330988203612,4
20.55342557092849,0.21774410499143115,4
20.56342723787298,0.14982933426085374,4
20.57342890481747,0.12137429440277121,4
20.583430571761962,0.11616288518594435,4
20.593432238706452,0.06270045333035958,4
20.60343390565094,0.05107123533808328,4
20.613435572595435,0.02515506644228246,4
20.623437239539925,0.01666335689100524,4
20.633438906484415,0.004816991553511094,4
20.643440573428904,0.0035110485687274468,4
20.653442240373398,-0.0002269095844960802,4
20.663443907317887,0.004313259884323486,4
20.673445574262377,-0.011047553988911444,4
20.683447241206867,-0.01155785867599908,4
20.69344890815136,-0.012541270153259374,4
20.70345057509585,-0.030750824643018145,4
20.71345224204034,-0.014604118684927444,4
20.723453908984833,-0.009477362933698752,4
20.733455575929323,-0.04060667369105803,4
20.743457242873813,-0.053064366839719705,4
20.753458909818303,-0.08260382887626162,4
20.763460576762796,-0.1083142608697965,4
20.773462243707286,-0.14071911749103985,4
20.783463910651776,-0.17614888673862913,4
20.793465577596265,-0.22393973972200193,4
20.80346724454076,-0.27441488018234383,4
20.81346891148525,-0.32510620475896845,4
20.82347057842974,-0.38446433819938886,4
20.83347224537423,-0.4118593675261802,4
20.84347391231872,-0.4637231881433765,4
20.85347557926321,-0.5362350354561666,4
20.8634772462077,-0.6056268692545187,4
20.873478913152194,-0.6271691045755565,4
20.883480580096684,-0.6656580340556506,4
20.893482247041174,-0.7447153797971368,4
20.903483913985664,-0.7467933462235795,4
20.913485580930157,-0.767223598059851,4
20.923487247874647,-0.7590071823112736,4
20.933488914819137,-0.7711214360790237,4
20.943490581763626,-0.7696129794599345,4
20.95349224870812,-0.7367242254955674,4
20.96349391565261,-0.7271290730411245,4
20.9734955825971,-0.7026017074764589,4
20.983497249541593,-0.6236169462359995,4
20.993498916486082,-0.5855995302260817,4
21.003500583430572,-0.506009544132815,4
21.013502250375062,-0.44300593758807516,4
21.023503917319555,-0.34180862970373715,4
21.033505584264045,-0.2616908450960041,4
21.043507251208535,-0.17284172646866366,4
21.053508918153025,-0.06624964518757706,4
21.063510585097518,0.01307722800524864,4
21.073512252042008,0.09891928745504563,4
21.083513918986498,0.20602760726389113,4
21.09351558593099,0.3006031962386135,4
21.10351725287548,0.4107456278984388,4
21.11351891981997,0.4664309142471914,4
21.12352058676446,0.5341267594025181,4
21.133522253708954,0.6079849100481258,4
21.143523920653443,0.6737471730909581,4
21.153525587597933,0.7095285482581767,4
21.163527254542423,0.7366579639614712,4
21.173528921486916,0.7522927109970818,4
21.183530588431406,0.7602822175419063,4
21.193532255375896,0.7763293871757428,4
21.20353392232039,0.7854844700355335,4
21.21353558926488,0.7544182147713085,4
21.22353725620937,0.7198587375032113,4
21.23353892315386,0.6937120079698345,4
21.243540590098352,0.6638182918527692,4
21.25354225704284,0.621584801997283,4
21.26354392398733,0.5564992519297843,4
21.27354559093182,0.5124839037510893,4
21.283547257876315,0.45350069263089626,4
21.293548924820804,0.38538961311022696,4
21.303550591765294,0.36394128457182245,4
21.313552258709787,0.2939213992622458,4
21.323553925654277,0.2407242308579971,4
21.333555592598767,0.20904911221534755,4
21.343557259543257,0.16033415994775982,4
21.35355892648775,0.11776043513762544,4
21.36356059343224,0.11152480109240989,4
21.37356226037673,0.07042524001281183,4
21.38356392732122,0.04972483838672583,4
21.393565594265713,0.029453165377912736,4
21.403567261210203,0.018776180223077744,4
21.413568928154692,0.021504261745586443,4
21.423570595099186,0.013157410170465405,4
21.433572262043675,-0.01794735940712617,4
21.443573928988165,0.011982831000322191,4
21.453575595932655,0.01253138517347789,4
21.46357726287715,-0.0059455655829161805,4
21.473578929821638,-0.0005960718343713807,4
21.483580596766128,-0.025318768594627946,4
21.493582263710618,-0.014685295404412711,4
21.50358393065511,-0.03783957548281364,4
21.5135855975996,-0.02710840379885064,4
21.52358726454409,-0.06157130559119689,4
21.533588931488584,-0.07369402023016094,4
21.543590598433074,-0.12751215221174486,4
21.553592265377564,-0.13722033993378505,4
21.563593932322053,-0.1800650797693656,4
21.573595599266547,-0.2135385626320235,4
21.583597266211036,-0.2768581442612259,4
21.593598933155526,-0.33873121323342187,4
21.603600600100016,-0.3955058060381423,4
21.61360226704451,-0.4315761973690811,4
21.623603933989,-0.4863293975370036,4
21.63360560093349,-0.5553342132861643,4
21.64360726787798,-0.5995749369548323,4
21.653608934822472,-0.6271338329590084,4
21.663610601766962,-0.6836613253084143,4
21.67361226871145,-0.708045076778804,4
21.683613935655945,-0.7440920139336578,4
21.693615602600435,-0.7638660723267728,4
21.703617269544925,-0.7662510704446986,4
21.713618936489414,-0.7680341643038754,4
21.723620603433908,-0.7667038799918815,4
21.733622270378397,-0.7576539966104112,4
21.743623937322887,-0.746522269152886,4
21.753625604267377,-0.6779717388446304,4
21.76362727121187,-0.6274132590167371,4
21.77362893815636,-0.5711226598487574,4
21.78363060510085,-0.505454490958514,4
21.793632272045343,-0.4395816818393647,4
21.803633938989833,-0.349855620304409,4
21.813635605934323,-0.25718213619190305,4
21.823637272878813,-0.13628307091759306,4
21.833638939823306,-0.09887413799127093,4
21.843640606767796,0.028231633462858684,4
21.853642273712286,0.12413137508622511,4
21.863643940656775,0.21781279481744695,4
21.87364560760127,0.29514928147389846,4
21.88364727454576,0.4108106397346436,4
21.893648941490248,0.45361265763090636,4
21.90365060843474,0.5165395460162143,4
21.91365227537923,0.6035448762655719,4
21.92365394232372,0.6563044108493703,4
21.93365560926821,0.7077640604225903,4
21.943657276212704,0.7181255002871543,4
21.953658943157194,0.7633851457680014,4
21.963660610101684,0.7747012577754416,4
21.973662277046174,0.7747049625356174,4
21.983663943990667,0.7722227291269245,4
21.993665610935157,0.7461773339422704,4
22.003667277879646,0.7331522782579948,4
22.01366894482414,0.6902029018205793,4
22.02367061176863,0.6519686413218746,4
22.03367227871312,0.6163768721596702,4
22.04367394565761,0.5662744624955577,4
22.053675612602103,0.501960733331118,4
22.063677279546592,0.4646469070704499,4
22.073678946491082,0.4052684253532682,4
22.083680613435572,0.34316282338900794,4
22.093682280380065,0.3120665022145957,4
22.103683947324555,0.24297782404756,4
22.113685614269045,0.18459770045071738,4
22.123687281213538,0.16578809689120283,4
22.133688948158028,0.1092001375664639,4
22.143690615102518,0.09032568155423677,4
22.153692282047007,0.06179093938409995,4
22.1636939489915,0.021716897253559322,4
22.17369561593599,0.04017550073991481,4
22.18369728288048,0.018304477771789153,4
22.19369894982497,0.021375855762237904,4
22.203700616769463,-0.02477261756366024,4
22.213702283713953,0.015974322910519534,4
22.223703950658443,-0.001231641129232688,4
22.233705617602936,-0.001674067593723232,4
22.243707284547426,0.007927574841506824,4
22.253708951491916,-0.009982985166713544,4
22.263710618436406,-0.011331613658065003,4
22.2737122853809,-0.01090455523091882,4
22.28371395232539,-0.02997507904694488,4
22.29371561926988,-0.04503002964684842,4
22.30371728621437,-0.07445977959198002,4
22.313718953158862,-0.07471232237425507,4
22.32372062010335,-0.11886824057802547,4
22.33372228704784,-0.12670397041756928,4
22.34372395399233,-0.17877426356748927,4
22.353725620936824,-0.21934848189087885,4
22.363727287881314,-0.25794154616854015,4
22.373728954825804,-0.3168297404712901,4
22.383730621770297,-0.3669737630840085,4
22.393732288714787,-0.46193813423394936,4
22.403733955659277,-0.4857597930934045,4
22.413735622603767,-0.542712797673853,4
22.42373728954826,-0.5961156523404888,4
22.43373895649275,-0.6311978737778762,4
22.44374062343724,-0.6902966984848529,4
22.45374229038173,-0.7184013221102229,4
22.463743957326223,-0.7449751987704466,4
22.473745624270713,-0.7748292868280982,4
22.483747291215202,-0.7768407956212608,4
22.493748958159696,-0.7825978172372877,4
22.503750625104185,-0.781683843984701,4
22.513752292048675,-0.7467055169979175,4
22.523753958993165,-0.7324661889874332,4
22.53375562593766,-0.6868609653799508,4
22.543757292882148,-0.6188964898418077,4
22.553758959826638,-0.5756614639211882,4
22.563760626771128,-0.5113250201669155,4
22.57376229371562,-0.44279327784189093,4
22.58376396066011,-0.3409988284585144,4
22.5937656276046,-0.2712945866306278,4
22.603767294549094,-0.16412093983612958,4
22.613768961493584,-0.06783310128886516,4
22.623770628438074,0.033973370224855685,4
22.633772295382563,0.10802134009353809,4
22.643773962327057,0.20865578625704811,4
22.653775629271546,0.3116249766871551,4
22.663777296216036,0.40717436269262625,4
22.673778963160526,0.48091398174361766,4
22.68378063010502,0.5272012542499821,4
22.69378229704951,0.6063715263363941,4
22.703783963994,0.6660083248700902,4
22.713785630938492,0.6816301222499646,4
22.723787297882982,0.727336530532334,4
22.733788964827472,0.7473601948961608,4
22.74379063177196,0.7632854298129605,4
22.753792298716455,0.7879583655695697,4
22.763793965660945,0.7707532756415791,4
22.773795632605434,0.7579318053512892,4
22.783797299549924,0.733727458578537,4
22.793798966494418,0.6914605308784325,4
22.803800633438907,0.6686002111188353,4
22.813802300383397,0.5993428605735805,4
22.82380396732789,0.5474915861590665,4
22.83380563427238,0.4975548894400855,4
22.84380730121687,0.45763732301166515,4
22.85380896816136,0.4121871573617707,4
22.863810635105853,0.3516043531441761,4
22.873812302050343,0.2993603496453391,4
22.883813968994833,0.26090651600787407,4
22.893815635939323,0.20213095871920622,4
22.903817302883816,0.15229907148410948,4
22.913818969828306,0.11874638445467765,4
22.923820636772795,0.1082970423431906,4
22.93382230371729,0.055771252248157724,4
22.94382397066178,0.04811903059669517,4
22.95382563760627,0.048626073658922436,4
22.963827304550758,0.024199077678647825,4
22.97382897149525,0.0036494732503817686,4
22.98383063843974,0.0004926839445103912,4
22.99383230538423,0.0025604088358945347,4
23.00383397232872,-0.003028462166958204,4
23.013835639273214,-0.009794403152075753,4
23.023837306217704,0.010650968089988751,4
23.033838973162194,-0.007593677946000878,4
23.043840640106687,-0.007009943097945242,4
23.053842307051177,-0.01738042918596998,4
23.063843973995667,-0.01960467292025294,4
23.073845640940156,-0.05114192640020215,4
23.08384730788465,-0.05826395368685958,4
23.09384897482914,-0.08513145210591307,4
23.10385064177363,-0.09343981137166403,4
23.11385230871812,-0.14601838089473726,4
23.123853975662612,-0.1906474557390324,4
23.133855642607102,-0.22399989835623302,4
23.143857309551592,-0.27680577367366876,4
23.153858976496082,-0.31835200379553996,4
23.163860643440575,-0.3753446020340287,4
23.173862310385065,-0.43056436473778203,4
23.183863977329555,-0.4991537096546913,4
23.193865644274048,-0.5292899017895312,4
23.203867311218538,-0.5924339645736424,4
23.213868978163028,-0.6307808617761995,4
23.223870645107517,-0.6669379533667568,4
23.23387231205201,-0.7144649261708118,4
23.2438739789965,-0.7535254972552808,4
23.25387564594099,-0.7577346614364192,4
23.26387731288548,-0.7643637423217345,4
23.273878979829973,-0.7617059332360486,4
23.283880646774463,-0.7659052445601753,4
23.293882313718953,-0.7551907897699786,4
23.303883980663446,-0.7249044968850442,4
23.313885647607936,-0.6900959587498493,4
23.323887314552426,-0.6374039027638334,4
23.333888981496916,-0.5889710524227069,4
23.34389064844141,-0.5080892282687143,4
23.3538923153859,-0.4274563080468214,4
23.36389398233039,-0.33920711625205074,4
23.37389564927488,-0.27674845919858787,4
23.38389731621937,-0.16967161294422847,4
23.39389898316386,-0.0783984494090444,4
23.40390065010835,0.027117938227021743,4
23.413902317052845,0.12093582201289173,4
23.423903983997334,0.22118934570921361,4
23.433905650941824,0.3014082545278765,4
23.443907317886314,0.3907283129053935,4
23.453908984830807,0.4578217039563011,4
23.463910651775297,0.5288497398017709,4
23.473912318719787,0.5980019039227213,4
23.483913985664277,0.6535416262038882,4
23.49391565260877,0.7147361325409756,4
23.50391731955326,0.7564514412776387,4
23.51391898649775,0.7531728556605648,4
23.523920653442243,0.7826288653323231,4
23.533922320386733,0.7596162059286538,4
23.543923987331222,0.7764181046797154,4
23.553925654275712,0.7582612016259628,4
23.563927321220206,0.7088104703133343,4
23.573928988164695,0.6774010611283654,4
23.583930655109185,0.6710611358012198,4
23.593932322053675,0.6333469598657826,4
23.60393398899817,0.5730408747531743,4
23.613935655942658,0.5111685404997246,4
23.623937322887148,0.4629794463220752,4
23.63393898983164,0.40010719878225015,4
23.64394065677613,0.35753212410922036,4
23.65394232372062,0.2903702830347147,4
23.66394399066511,0.25820619891204954,4
23.673945657609604,0.21165165019825483,4
23.683947324554094,0.16916507081524287,4
23.693948991498583,0.1388302175307328,4
23.703950658443073,0.10014282419118012,4
23.713952325387567,0.05556809105495792,4
23.723953992332056,0.05862823918959867,4
23.733955659276546,0.022803031602946826,4
23.74395732622104,0.02758172798793017,4
23.75395899316553,0.007482905774174085,4
23.76396066011002,-0.007674326631506042,4
23.77396232705451,0.0014703497878626108,4
23.783963993999002,-0.003891731387310907,4
23.793965660943492,-0.002954161797379923,4
23.80396732788798,0.020976480495058167,4
23.81396899483247,-0.006663055732335982,4
23.823970661776965,0.011914083222036947,4
23.833972328721455,-0.02432186714547746,4
23.843973995665944,-0.01817638412811205,4
23.853975662610434,-0.04498667186150171,4
23.863977329554928,-0.043304756362583664,4
23.873978996499417,-0.08855213907826606,4
23.883980663443907,-0.11384144944824043,4
23.8939823303884,-0.13373833843743219,4
23.90398399733289,-0.18745706033537676,4
23.91398566427738,-0.2240023312175058,4
23.92398733122187,-0.2830896969512479,4
23.933988998166363,-0.32958196421059716,4
23.943990665110853,-0.37138728238725094,4
23.953992332055343,-0.41841523774055994,4
23.963993998999833,-0.48271361214139635,4
23.973995665944326,-0.5249731162026635,4
23.983997332888816,-0.5849174530819419,4
23.993998999833305,-0.6415646043010502,4
24.0040006667778,-0.6757585148629204,4
24.01400233372229,-0.7252862418332141,4
24.02400400066678,-0.742059250870493,4
24.034005667611268,-0.7520867114048311,4
24.04400733455576,-0.7937130745826049,4
24.05400900150025,-0.787779031542626,4
24.06401066844474,-0.7591471538717292,4
24.07401233538923,-0.7483046199270834,4
24.084014002333724,-0.7136381009113929,4
24.094015669278214,-0.6694545724931303,4
24.104017336222704,-0.6232622122058213,4
24.114019003167197,-0.5833676360934767,4
24.124020670111687,-0.5180337919725115,4
24.134022337056177,-0.4293573083334632,4
24.144024004000666,-0.3521346282179591,4
24.15402567094516,-0.2461310402951539,4
24.16402733788965,-0.15277890940506908,4
24.17402900483414,-0.08131076593988776,4
24.18403067177863,0.025245159676860692,4
24.194032338723122,0.1344016218404194,4
24.204034005667612,0.21806194742726395,4
24.214035672612102,0.29508622274078217,4
24.224037339556595,0.38656168426982096,4
24.234039006501085,0.47471189703196237,4
24.244040673445575,0.5466352762857548,4
24.254042340390065,0.6043708736517355,4
24.264044007334558,0.6540663522448188,4
24.274045674279048,0.6978597664022371,4
24.284047341223538,0.7297946004859016,4
24.294049008168027,0.7594939620913198,4
24.30405067511252,0.7598917146279174,4
24.31405234205701,0.7671050933692406,4
24.3240540090015,0.7673824529006759,4
24.334055675945994,0.7518797873020067,4
24.344057342890483,0.7420445110188252,4
24.354059009834973,0.686986603048865,4
24.364060676779463,0.6479424247931702,4
24.374062343723956,0.6175316558066994,4
24.384064010668446,0.5660322559700894,4
24.394065677612936,0.5259539267591476,4
24.404067344557426,0.4690126325036253,4
24.41406901150192,0.4159687721261794,4
24.42407067844641,0.35520172539477574,4
24.4340723453909,0.31001761880524786,4
24.444074012335392,0.2629268487417043,4
24.45407567927988,0.1942091664338207,4
24.46407734622437,0.14772023641855583,4
24.47407901316886,0.12703941153583756,4
24.484080680113355,0.11643228530926646,4
24.494082347057844,0.06521393914480068,4
24.504084014002334,0.05605512729539021,4
24.514085680946824,0.024735528974485554,4
24.524087347891317,0.02175288099786969,4
24.534089014835807,0.013570996258205327,4
24.544090681780297,0.005406342605770097,4
24.554092348724787,-0.0013261240440003582,4
24.56409401566928,-0.0051236328366896415,4
24.57409568261377,0.010325775337132215,4
24.58409734955826,-0.007869701568543915,4
24.594099016502753,-0.0016468989993420778,4
24.604100683447243,-0.005899154776939703,4
24.614102350391732,-0.014311217501377602,4
24.624104017336222,-0.011840860188845023,4
24.634105684280716,-0.007080688169023873,4
24.644107351225205,-0.056435817821168785,4
24.654109018169695,-0.08342728341898326,4
24.664110685114185,-0.10926518201567859,4
24.67411235205868,-0.13010972475603486,4
24.684114019003168,-0.1880127371500085,4
24.694115685947658,-0.22229953759000634,4
24.70411735289215,-0.27584066168413796,4
24.71411901983664,-0.3173633683056287,4
24.72412068678113,-0.37294435575934937,4
24.73412235372562,-0.41453808322010655,4
24.744124020670114,-0.48976607450561255,4
24.754125687614604,-0.5359637135904362,4
24.764127354559093,-0.5957071553677921,4
24.774129021503583,-0.6306235956704697,4
24.784130688448077,-0.669596343930577,4
24.794132355392566,-0.7266425576298038,4
24.804134022337056,-0.7622714466703738,4
24.81413568928155,-0.7557050389390098,4
24.82413735622604,-0.773427429900519,4
24.83413902317053,-0.7810285463079121,4
24.84414069011502,-0.7656430347859114,4
24.854142357059512,-0.745575256527754,4
24.864144024004002,-0.7405495174820339,4
24.87414569094849,-0.6856399848475568,4
24.88414735789298,-0.629220628924522,4
24.894149024837475,-0.5779330972796047,4
24.904150691781965,-0.5043488999203418,4
24.914152358726454,-0.4265237924232171,4
24.924154025670948,-0.349624960844197,4
24.934155692615438,-0.26519761189506946,4
24.944157359559927,-0.15271305059909765,4
24.954159026504417,-0.06745532370890511,4
24.96416069344891,0.027307693268757195,4
24.9741623603934,0.11967046767318051,4
24.98416402733789,0.23139847732225632,4
24.99416569428238,0.2992471306369475,4
25.004167361226873,0.387121676977106,4
25.014169028171363,0.4730785769756324,4
25.024170695115853,0.5496107852677118,4
25.034172362060346,0.5932859206142448,4
25.044174029004836,0.6509280947264686,4
25.054175695949326,0.7185742552243282,4
25.064177362893815,0.7412806188870106,4
25.07417902983831,0.7719700189457871,4
25.0841806967828,0.7789210221147499,4
25.09418236372729,0.7765417187535869,4
25.104184030671778,0.7789314994472436,4
25.11418569761627,0.7541538375979475,4
25.12418736456076,0.7240234458274591,4
25.13418903150525,0.6953796844893715,4
25.144190698449744,0.659632196746955,4
25.154192365394234,0.6007772500295523,4
25.164194032338724,0.5714714917350509,4
25.174195699283214,0.5165458774731536,4
25.184197366227707,0.43539796686169585,4
25.194199033172197,0.39293943277559623,4
25.204200700116687,0.32884882817724304,4
25.214202367061176,0.3016710809952443,4
25.22420403400567,0.25500355525809404,4
25.23420570095016,0.19509401401521997,4
25.24420736789465,0.17115994260695463,4
25.25420903483914,0.10142118391620684,4
25.264210701783632,0.09737099139162347,4
25.274212368728122,0.0702746231775628,4
25.284214035672612,0.05289338197489492,4
25.294215702617105,0.02574524055495346,4
25.304217369561595,0.016028731716283693,4
25.314219036506085,0.014511549662760756,4
25.324220703450575,0.003534979043138256,4
25.334222370395068,0.0007508787017875742,4
25.344224037339558,0.010797896591327773,4
25.354225704284048,-0.0023805721956499555,4
25.364227371228537,-0.0031043164298608797,4
25.37422903817303,0.0083629887173754,4
25.38423070511752,0.0004729685301478534,4
25.39423237206201,-0.02231302973205583,4
25.404234039006504,-0.03949774094250459,4
25.414235705950993,-0.04210840296943906,4
25.424237372895483,-0.04555569420331482,4
25.434239039839973,-0.06916852798860673,4
25.444240706784466,-0.11221320866740869,4
25.454242373728956,-0.1375319915100099,4
25.464244040673446,-0.18306048882276976,4
25.474245707617936,-0.25345982489583396,4
25.48424737456243,-0.2741853553463084,4
25.49424904150692,-0.328169556776073,4
25.50425070845141,-0.37863865933757446,4
25.514252375395902,-0.42826705125338443,4
25.52425404234039,-0.4866810059020729,4
25.53425570928488,-0.5432043029551599,4
25.54425737622937,-0.58798516529841,4
25.554259043173865,-0.6338530143410198,4
25.564260710118354,-0.6898185313522956,4
25.574262377062844,-0.7056037785125424,4
25.584264044007334,-0.7278484383692809,4
25.594265710951827,-0.7514897393552858,4
25.604267377896317,-0.776370713700259,4
25.614269044840807,-0.7655363486406837,4
25.6242707117853,-0.780514130751402,4
25.63427237872979,-0.7538288144030998,4
25.64427404567428,-0.7205987296569552,4
25.65427571261877,-0.6767503563266033,4
25.664277379563263,-0.6186522811845978,4
25.674279046507753,-0.575521312119846,4
25.684280713452242,-0.513431647260268,4
25.694282380396732,-0.4198403045028509,4
25.704284047341226,-0.35372541235491817,4
25.714285714285715,-0.2700948909326006,4
25.724287381230205,-0.16932224231751244,4
25.7342890481747,-0.07460051330467835,4
25.744290715119188,0.008257658835173837,4
25.754292382063678,0.1297456100719265,4
25.764294049008168,0.20203429409090717,4
25.77429571595266,0.29370585292792445,4
25.78429738289715,0.40504282530506064,4
25.79429904984164,0.4815615856658942,4
25.80430071678613,0.5479100690901846,4
25.814302383730624,0.6053081554526868,4
25.824304050675114,0.6547680529137614,4
25.834305717619603,0.7077921389699985,4
25.844307384564097,0.7542630022992416,4
25.854309051508586,0.7814728017955422,4
25.864310718453076,0.7660111575400069,4
25.874312385397566,0.7774189203860838,4
25.88431405234206,0.7681345048418899,4
25.89431571928655,0.7672395989382379,4
25.90431738623104,0.7242886707350591,4
25.91431905317553,0.6980698513241806,4
25.924320720120022,0.6526179666767141,4
25.934322387064512,0.6088418123626074,4
25.944324054009,0.576063657138464,4
25.954325720953495,0.507154452609071,4
25.964327387897985,0.46580226622551785,4
25.974329054842475,0.39490290233469627,4
25.984330721786964,0.3354460403800602,4
25.994332388731458,0.2903929294551669,4
26.004334055675947,0.26327260443277306,4
26.014335722620437,0.2002895446428158,4
26.024337389564927,0.13894067340337782,4
26.03433905650942,0.12321417022087827,4
26.04434072345391,0.10827030303402374,4
26.0543423903984,0.06701033149813573,4
26.06434405734289,0.05302318295145969,4
26.074345724287383,0.029551523615344504,4
26.084347391231873,0.019936719129757707,4
26.094349058176363,-0.005048974751856046,4
26.104350725120856,-0.00042477257430422,4
26.114352392065346,-0.0051004327854900335,4
26.124354059009836,-0.014204550890485555,4
26.134355725954325,-0.004216018440665716,4
26.14435739289882,-0.011252670135574946,4
26.15435905984331,0.012098799535708405,4
26.1643607267878,0.005697935667981423,4
26.174362393732288,-0.0003917199821841938,4
26.18436406067678,-0.017221621003583584,4
26.19436572762127,-0.03395709346222549,4
26.20436739456576,-0.06684612384293123,4
26.214369061510254,-0.0785498252671652,4
26.224370728454744,-0.11535434863175405,4
26.234372395399234,-0.1559006984661888,4
26.244374062343724,-0.18623414429267682,4
26.254375729288217,-0.21852778690928706,4
26.264377396232707,-0.2664062006588497,4
26.274379063177197,-0.30525685729326485,4
26.284380730121686,-0.35325961728801375,4
26.29438239706618,-0.43980215842017967,4
26.30438406401067,-0.47803373794690474,4
26.31438573095516,-0.5404786607172438,4
26.324387397899653,-0.5920822057774314,4
26.334389064844142,-0.6462941094211824,4
26.344390731788632,-0.6889866323819617,4
26.354392398733122,-0.7266432198761545,4
26.364394065677615,-0.7541575670035019,4
26.374395732622105,-0.7765579888026346,4
26.384397399566595,-0.7684706059308329,4
26.394399066511085,-0.7682696119063511,4
26.404400733455578,-0.7612406470985876,4
26.414402400400068,-0.7537674460234008,4
26.424404067344557,-0.7240381157627043,4
26.43440573428905,-0.6656760276215337,4
26.44440740123354,-0.6193822966607057,4
26.45440906817803,-0.5777872092924164,4
26.46441073512252,-0.5129674220820749,4
26.474412402067014,-0.4384413185904496,4
26.484414069011503,-0.36914360784297257,4
26.494415735955993,-0.2519129501045291,4
26.504417402900483,-0.1641468812839806,4
26.514419069844976,-0.03876109497218066,4
26.524420736789466,0.02471341319457486,4
26.534422403733956,0.11833186077870803,4
26.54442407067845,0.22475398400247434,4
26.55442573762294,0.30584795340433846,4
26.56442740456743,0.40816217981385045,4
26.57442907151192,0.46862652162196206,4
26.584430738456412,0.5343271174832945,4
26.5944324054009,0.5976565014556402,4
26.60443407234539,0.6734440750889379,4
26.61443573928988,0.7062073531785579,4
26.624437406234374,0.7596176994116504,4
26.634439073178864,0.7516979653215269,4
26.644440740123354,0.7878296815489054,4
26.654442407067847,0.7676036543531302,4
26.664444074012337,0.7740703695876422,4
26.674445740956827,0.7700150167573352,4
26.684447407901317,0.7404303047860795,4
26.69444907484581,0.7137016550718341,4
26.7044507417903,0.6607131250816813,4
26.71445240873479,0.6063917711116824,4
26.72445407567928,0.5574327897188515,4
26.734455742623773,0.507029838662668,4
26.744457409568263,0.47511423401536496,4
26.754459076512752,0.39446586163546676,4
26.764460743457242,0.3410069599001874,4
26.774462410401735,0.30179738234396486,4
26.784464077346225,0.24080551239452846,4
26.794465744290715,0.20918878518251838,4
26.80446741123521,0.17032949034023334,4
26.814469078179698,0.10547852683363396,4
26.824470745124188,0.07589195296094052,4
26.834472412068678,0.07303478132464575,4
26.84447407901317,0.0675742429584634,4
26.85447574595766,0.026133546769591735,4
26.86447741290215,0.035699384265478085,4
26.87447907984664,0.013127258735969517,4
26.884480746791134,0.00014710405176730518,4
26.894482413735624,-0.004524808736202115,4
26.904484080680113,0.014280296370294225,4
26.914485747624607,-0.0021098999913240473,4
26.924487414569096,-0.005079422189181043,4
26.934489081513586,0.01656556752010888,4
26.944490748458076,0.0043194997859474435,4
26.95449241540257,-0.014163883332346,4
26.96449408234706,-0.0295352787753671,4
26.97449574929155,-0.04159944792050365,4
26.98449741623604,-0.05753541064886126,4
26.994499083180532,-0.0670191798363394,4
27.004500750125022,-0.11662667496245081,4
27.01450241706951,-0.13577746925089798,4
27.024504084014005,-0.18928471566081112,4
27.034505750958495,-0.2043165633153487,4
27.044507417902985,-0.27455306348689146,4
27.054509084847474,-0.323506794209628,4
27.064510751791968,-0.37977642062477074,4
27.074512418736457,-0.4282428025880934,4
27.084514085680947,-0.4959410961850988,4
27.094515752625437,-0.553495789885404,4
27.10451741956993,-0.5828397349632516,4
27.11451908651442,-0.6472017803171518,4
27.12452075345891,-0.6892169040360223,4
27.134522420403403,-0.7057183070757761,4
27.144524087347893,-0.7493484743230133,4
27.154525754292383,-0.7655338097912878,4
27.164527421236873,-0.7897645911008913,4
27.174529088181366,-0.7696488141464496,4
27.184530755125856,-0.7712285930194057,4
27.194532422070345,-0.7661526083340418,4
27.204534089014835,-0.7076198468617342,4
27.21453575595933,-0.6851502752005199,4
27.22453742290382,-0.6157432854909316,4
27.234539089848308,-0.5721604700514086,4
27.2445407567928,-0.5087809431531268,4
27.25454242373729,-0.43849561031895196,4
27.26454409068178,-0.3496897519281392,4
27.27454575762627,-0.26283374282056177,4
27.284547424570764,-0.16837565517015426,4
27.294549091515254,-0.07314156397251112,4
27.304550758459744,0.012285474167677904,4
27.314552425404234,0.13745118315970306,4
27.324554092348727,0.20398564091327145,4
27.334555759293217,0.307067152828096,4
27.344557426237706,0.38891771283672827,4
27.3545590931822,0.4754303979137931,4
27.36456076012669,0.5417553458191842,4
27.37456242707118,0.6163171118024094,4
27.38456409401567,0.6673855905600631,4
27.394565760960162,0.7190902731082499,4
27.404567427904652,0.7326036780242497,4
27.414569094849142,0.7768875140518039,4
27.424570761793632,0.7843739154595968,4
27.434572428738125,0.7724513775368458,4
27.444574095682615,0.7826939478279137,4
27.454575762627105,0.769766025446939,4
27.464577429571595,0.7183760718090195,4
27.474579096516088,0.7251694532347316,4
27.484580763460578,0.6626211561945662,4
27.494582430405067,0.5933782383146096,4
27.50458409734956,0.553036548397544,4
27.51458576429405,0.5073613997824016,4
27.52458743123854,0.4558477283352283,4
27.53458909818303,0.3989253194597744,4
27.544590765127523,0.3527419122192603,4
27.554592432072013,0.3020493191647754,4
27.564594099016503,0.24944633881945102,4
27.574595765960993,0.19545915720418688,4
27.584597432905486,0.16196808026331339,4
27.594599099849976,0.12527275662036316,4
27.604600766794466,0.09440977499840766,4
27.61460243373896,0.08712177836911057,4
27.62460410068345,0.05322170997196255,4
27.63460576762794,0.036269806683073634,4
27.64460743457243,0.019216398340498084,4
27.65460910151692,0.0020421242078465015,4
27.66461076846141,0.015328156788542093,4
27.6746124354059,0.006503407298235176,4
27.68461410235039,0.0050570402715744275,4
27.694615769294884,-0.007504221014285252,4
27.704617436239374,0.02308442746382049,4
27.714619103183864,-0.013636506708315193,4
27.724620770128357,0.0051707070704444386,4
27.734622437072847,-0.014775348936025461,4
27.744624104017337,-0.013911478066015809,4
27.754625770961827,-0.029405136907887215,4
27.76462743790632,-0.05963749586571213,4
27.77462910485081,-0.07774689156598755,4
27.7846307717953,-0.12202445080258513,4
27.79463243873979,-0.1553519659738099,4
27.804634105684283,-0.1978771387367583,4
27.814635772628773,-0.2115929214490209,4
27.824637439573262,-0.268024298629937,4
27.834639106517756,-0.3055937099244401,4
27.844640773462245,-0.362414646404899,4
27.854642440406735,-0.42836811770027783,4
27.864644107351225,-0.4868873423157009,4
27.87464577429572,-0.5303495931953611,4
27.884647441240208,-0.584628342826365,4
27.894649108184698,-0.6479557363824926,4
27.904650775129188,-0.6785699289549548,4
27.91465244207368,-0.7045108985916897,4
27.92465410901817,-0.7635925240550528,4
27.93465577596266,-0.7706286508832914,4
27.944657442907154,-0.7661406254796442,4
27.954659109851644,-0.7719413003052641,4
27.964660776796133,-0.7618491369707036,4
27.974662443740623,-0.7544768228382305,4
27.984664110685117,-0.710737972631894,4
27.994665777629606,-0.6904349472673071,4
28.004667444574096,-0.6217712045816828,4
28.014669111518586,-0.5766128982358701,4
28.02467077846308,-0.49459162038719323,4
28.03467244540757,-0.4271703484083484,4
28.04467411235206,-0.3348963255263062,4
28.054675779296552,-0.2693248730423534,4
28.064677446241042,-0.17066782433668518,4
28.07467911318553,-0.06535876636473992,4
28.08468078013002,0.04333558322810162,4
28.094682447074515,0.1385275431058952,4
28.104684114019005,0.23045774914347125,4
28.114685780963494,0.3134251170905541,4
28.124687447907984,0.39560803600422295,4
28.134689114852478,0.48689112452126027,4
28.144690781796967,0.5557359059114546,4
28.154692448741457,0.6199804520914852,4
28.164694115685947,0.6721384176384668,4
28.17469578263044,0.739517316628527,4
28.18469744957493,0.7324746788601342,4
28.19469911651942,0.78984112274112,4
28.204700783463913,0.7793649153127798,4
28.214702450408403,0.7670382846526556,4
28.224704117352893,0.7684357070838923,4
28.234705784297383,0.7471284217563655,4
28.244707451241876,0.7241633020105533,4
28.254709118186366,0.6984509768877838,4
28.264710785130855,0.6485110214689228,4
28.274712452075345,0.5905601043623371,4
28.28471411901984,0.5560817577686774,4
28.29471578596433,0.5131911079316508,4
28.304717452908818,0.4661955528830389,4
28.31471911985331,0.4011012060685315,4
28.3247207867978,0.34709889275188394,4
28.33472245374229,0.305226385382827,4
28.34472412068678,0.2507336320423725,4
28.354725787631274,0.21229382758589535,4
28.364727454575764,0.17687527636173914,4
28.374729121520254,0.12095690892351404,4
28.384730788464744,0.09096066755989134,4
28.394732455409237,0.06697419319680686,4
28.404734122353727,0.06022893807207683,4
28.414735789298216,0.045314489841037586,4
28.42473745624271,0.012412049498573781,4
28.4347391231872,-0.005685180687879467,4
28.44474079013169,0.012415451719065019,4
28.45474245707618,0.0015358762762101596,4
28.464744124020672,-0.004580723504158426,4
28.474745790965162,0.007844251302902835,4
28.484747457909652,-0.007309630070924638,4
28.494749124854142,0.016120192610888397,4
28.504750791798635,-0.0014338024555045877,4
28.514752458743125,-0.011379778859360846,4
28.524754125687615,-0.03523367530531153,4
28.534755792632108,-0.022938586115292217,4
28.544757459576598,-0.06808580111503658,4
28.554759126521088,-0.07173639559901542,4
28.564760793465577,-0.101011729858167,4
28.57476246041007,-0.1306045011852574,4
28.58476412735456,-0.19314314622089745,4
28.59476579429905,-0.22150897999634409,4
28.60476746124354,-0.2609189558636111,4
28.614769128188033,-0.344575805795914,4
28.624770795132523,-0.38605072595532264,4
28.634772462077013,-0.43572342442217543,4
28.644774129021506,-0.48896716027349335,4
28.654775795965996,-0.5267957743328776,4
28.664777462910486,-0.593090310493124,4
28.674779129854976,-0.6378137117080136,4
28.68478079679947,-0.6683133563811388,4
28.69478246374396,-0.7283547473026631,4
28.70478413068845,-0.7203563591346875,4
28.71478579763294,-0.7686559920464076,4
28.72478746457743,-0.7960041707625237,4
28.73478913152192,-0.7687380582161848,4
28.74479079846641,-0.7874015836173066,4
28.754792465410905,-0.7407441906820393,4
28.764794132355394,-0.7265679429395194,4
28.774795799299884,-0.6787194914354857,4
28.784797466244374,-0.62422820531167,4
28.794799133188867,-0.5701224750790302,4
28.804800800133357,-0.48933700233964034,4
28.814802467077847,-0.42249408076924444,4
28.824804134022337,-0.3367043963298809,4
28.83480580096683,-0.2502267395093042,4
28.84480746791132,-0.15590978136291817,4
