time,ppg_signal,subject_id
0.0,0.001873667558525646,16
0.010001666944490749,0.102974243343387,16
0.020003333888981498,0.21069925300992318,16
0.030005000833472247,0.2988368733996929,16
0.040006667777962995,0.4151676530997137,16
0.050008334722453744,0.492416476227367,16
0.06001000166694449,0.559569974962981,16
0.07001166861143523,0.6417077620284309,16
0.08001333555592599,0.6723896254265925,16
0.09001500250041675,0.7325991901945703,16
0.10001666944490749,0.7678605736714785,16
0.11001833638939823,0.7779402101491577,16
0.12002000333388899,0.7577383343179954,16
0.13002167027837974,0.7535415732140361,16
0.14002333722287047,0.7443103852721242,16
0.15002500416736123,0.7186294129548136,16
0.16002667111185198,0.6997402998799739,16
0.17002833805634274,0.6426468623693807,16
0.1800300050008335,0.6009822227089262,16
0.19003167194532422,0.5340615533256976,16
0.20003333888981498,0.4851696720387787,16
0.21003500583430573,0.42509809396113507,16
0.22003667277879646,0.36275839304561286,16
0.23003833972328722,0.3011546716110379,16
0.24004000666777797,0.2354247585415529,16
0.2500416736122687,0.199965510219533,16
0.2600433405567595,0.14641313048134508,16
0.2700450075012502,0.10054898416626269,16
0.28004667444574094,0.07668697316009837,16
0.2900483413902317,0.04767759549717141,16
0.30005000833472245,0.039238115472684444,16
0.31005167527921323,0.03143570925867106,16
0.32005334222370396,-0.019024509906372458,16
0.3300550091681947,0.00234190677596776,16
0.3400566761126855,-0.003252000805080246,16
0.3500583430571762,-0.0012054601461493068,16
0.360060010001667,0.004763301380844967,16
0.3700616769461577,-0.005746446305512726,16
0.38006334389064844,-0.009999010758820596,16
0.3900650108351392,-0.014385409456710435,16
0.40006667777962995,-0.004197468072127496,16
0.4100683447241207,-0.018249980125237857,16
0.42007001166861146,-0.03870029668608777,16
0.4300716786131022,-0.06693687901945687,16
0.4400733455575929,-0.0780242098408628,16
0.4500750125020837,-0.13928124589471333,16
0.46007667944657443,-0.18453261951270003,16
0.4700783463910652,-0.2305177023015863,16
0.48008001333555594,-0.2818070945666097,16
0.49008168028004667,-0.3346649772151054,16
0.5000833472245374,-0.39615966510139583,16
0.5100850141690282,-0.44864633876819504,16
0.520086681113519,-0.5087671743675117,16
0.5300883480580096,-0.5609630144801279,16
0.5400900150025004,-0.6103228379147801,16
0.5500916819469912,-0.6749493235569525,16
0.5600933488914819,-0.7136605399102594,16
0.5700950158359727,-0.729528023192264,16
0.5800966827804634,-0.7920254398417522,16
0.5900983497249542,-0.7803816171301408,16
0.6001000166694449,-0.7932007700280063,16
0.6101016836139357,-0.777038137916639,16
0.6201033505584265,-0.7496755544241765,16
0.6301050175029171,-0.7101447041125333,16
0.6401066844474079,-0.6539609562682595,16
0.6501083513918987,-0.5886527293254054,16
0.6601100183363894,-0.5170471689546287,16
0.6701116852808802,-0.4263560994602489,16
0.680113352225371,-0.36655018273420015,16
0.6901150191698616,-0.2554634074563995,16
0.7001166861143524,-0.15703188163444978,16
0.7101183530588432,-0.04457162915102469,16
0.720120020003334,0.07210164765483898,16
0.7301216869478246,0.1589024472538394,16
0.7401233538923154,0.2739800654324812,16
0.7501250208368062,0.35516445484053144,16
0.7601266877812969,0.4625423364015999,16
0.7701283547257877,0.5252253718577575,16
0.7801300216702785,0.5870700041059078,16
0.7901316886147691,0.6636323938467055,16
0.8001333555592599,0.7262291324341805,16
0.8101350225037507,0.7708236040853049,16
0.8201366894482414,0.7677417935829772,16
0.8301383563927321,0.7783745383386829,16
0.8401400233372229,0.7825661325878951,16
0.8501416902817136,0.7680669647738134,16
0.8601433572262044,0.7431740194066266,16
0.8701450241706952,0.7196025171444846,16
0.8801466911151858,0.6638066245679779,16
0.8901483580596766,0.6336779205969417,16
0.9001500250041674,0.5414007349193114,16
0.9101516919486582,0.5042222951161041,16
0.9201533588931489,0.46204088724032133,16
0.9301550258376396,0.3802525768733319,16
0.9401566927821304,0.3289389349465407,16
0.9501583597266211,0.27929216674872076,16
0.9601600266711119,0.2085340403672059,16
0.9701616936156027,0.1615621707269783,16
0.9801633605600933,0.1394581684645962,16
0.9901650275045841,0.0909205961058816,16
1.0001666944490748,0.0631743409220621,16
1.0101683613935657,0.03333186701346111,16
1.0201700283380564,0.01428440458926809,16
1.030171695282547,0.0266039901166822,16
1.040173362227038,0.00942684972279747,16
1.0501750291715286,0.009535864853882844,16
1.0601766961160193,-0.00542392642525929,16
1.0701783630605102,0.007582981710429791,16
1.0801800300050008,0.011993366166150123,16
1.0901816969494915,-0.008627395323952156,16
1.1001833638939824,-0.01564822047982945,16
1.110185030838473,-0.0339240568727044,16
1.1201866977829638,-0.022931731261574544,16
1.1301883647274547,-0.04910464370936103,16
1.1401900316719453,-0.05974435882325499,16
1.1501916986164362,-0.08143843341752384,16
1.160193365560927,-0.11903113148740793,16
1.1701950325054176,-0.14797938589082,16
1.1801966994499085,-0.20255818743657605,16
1.1901983663943991,-0.26424602228213523,16
1.2002000333388898,-0.32718461944220467,16
1.2102017002833807,-0.3635163222276213,16
1.2202033672278714,-0.4213733107740715,16
1.230205034172362,-0.4637464327665292,16
1.240206701116853,-0.5101905429482355,16
1.2502083680613436,-0.5891717732558747,16
1.2602100350058343,-0.6441669778630996,16
1.2702117019503252,-0.700052713713072,16
1.2802133688948159,-0.7132483501628947,16
1.2902150358393065,-0.7507195663715783,16
1.3002167027837974,-0.7755259242088778,16
1.310218369728288,-0.7784040132138156,16
1.3202200366727788,-0.7720448967702648,16
1.3302217036172697,-0.7425385079128468,16
1.3402233705617603,-0.7261399250456363,16
1.350225037506251,-0.6647774324167124,16
1.360226704450742,-0.619062435401912,16
1.3702283713952326,-0.5460352336023224,16
1.3802300383397232,-0.4766628254718829,16
1.3902317052842141,-0.3847478014400816,16
1.4002333722287048,-0.2901198096357427,16
1.4102350391731955,-0.19472574026933612,16
1.4202367061176864,-0.10876882837334341,16
1.430238373062177,0.0027362635083252322,16
1.440240040006668,0.09459327406638264,16
1.4502417069511586,0.20564178830241556,16
1.4602433738956493,0.32188903403964664,16
1.4702450408401402,0.4033282267278967,16
1.4802467077846309,0.49588106277571536,16
1.4902483747291215,0.5572438276184751,16
1.5002500416736124,0.622731262608718,16
1.510251708618103,0.6980636257622358,16
1.5202533755625938,0.7457123461441545,16
1.5302550425070847,0.7533749485669221,16
1.5402567094515753,0.7561086141884839,16
1.550258376396066,0.7836887367736695,16
1.560260043340557,0.7731006566463136,16
1.5702617102850476,0.7561024832919063,16
1.5802633772295382,0.7285786067205929,16
1.5902650441740291,0.6875382513560652,16
1.6002667111185198,0.645559424879083,16
1.6102683780630105,0.5939035867944022,16
1.6202700450075014,0.5240323267870313,16
1.630271711951992,0.47794507332802605,16
1.6402733788964827,0.41648597170501167,16
1.6502750458409736,0.34896292618681113,16
1.6602767127854643,0.29580243116296545,16
1.670278379729955,0.24348321562320624,16
1.6802800466744459,0.19885041554024682,16
1.6902817136189365,0.16292608274873982,16
1.7002833805634272,0.11445457600173643,16
1.710285047507918,0.08155094685556918,16
1.7202867144524088,0.04667642799003324,16
1.7302883813968994,0.03842834062164781,16
1.7402900483413903,0.020900698801006964,16
1.750291715285881,0.021522802825069708,16
1.7602933822303717,-0.005436109899130237,16
1.7702950491748626,-0.008891016604648942,16
1.7802967161193533,0.002464165167951421,16
1.7902983830638441,0.012715081470070977,16
1.8003000500083348,0.0037029785846241295,16
1.8103017169528255,0.001907459788155711,16
1.8203033838973164,-0.010613419715848213,16
1.830305050841807,-0.019075340079427763,16
1.8403067177862977,-0.031230831391446515,16
1.8503083847307886,-0.053487302191088756,16
1.8603100516752793,-0.06691374153970202,16
1.87031171861977,-0.11331561107171617,16
1.8803133855642609,-0.12710217088527934,16
1.8903150525087515,-0.183122534894442,16
1.9003167194532422,-0.22019661240387697,16
1.910318386397733,-0.29467214859629753,16
1.9203200533422238,-0.32959204962498384,16
1.9303217202867144,-0.3793766996072062,16
1.9403233872312053,-0.4564246385781826,16
1.950325054175696,-0.5136062178319355,16
1.9603267211201867,-0.5572807185299516,16
1.9703283880646776,-0.6236069440423759,16
1.9803300550091683,-0.6883327197424586,16
1.990331721953659,-0.7154664892378902,16
2.0003333888981496,-0.7420337440328868,16
2.0103350558426407,-0.7620401593784166,16
2.0203367227871314,-0.7627154382814041,16
2.030338389731622,-0.771908427099583,16
2.0403400566761127,-0.7610394837772232,16
2.0503417236206034,-0.7459408995328052,16
2.060343390565094,-0.6962001613256349,16
2.070345057509585,-0.6575756155826368,16
2.080346724454076,-0.5857022712969476,16
2.0903483913985665,-0.5058707082707697,16
2.100350058343057,-0.4587141333472818,16
2.110351725287548,-0.36082107276191877,16
2.1203533922320386,-0.25531004644028543,16
2.1303550591765297,-0.14427000790534333,16
2.1403567261210203,-0.058286287502209454,16
2.150358393065511,0.04271577799840817,16
2.1603600600100017,0.15673254368225625,16
2.1703617269544924,0.27232287299948793,16
2.180363393898983,0.3615863174594248,16
2.190365060843474,0.4518224202286108,16
2.200366727787965,0.5486311539645135,16
2.2103683947324555,0.6113777077603743,16
2.220370061676946,0.6484891191533393,16
2.230371728621437,0.713846745998809,16
2.2403733955659275,0.7300160541561825,16
2.2503750625104186,0.7544897898273301,16
2.2603767294549093,0.7733307381257036,16
2.2703783963994,0.7778608302019376,16
2.2803800633438907,0.7471205669195201,16
2.2903817302883813,0.7302611032817953,16
2.3003833972328724,0.7256007471458008,16
2.310385064177363,0.6645268105815039,16
2.320386731121854,0.6001033898575465,16
2.3303883980663445,0.5630045309025931,16
2.340390065010835,0.5103126502741843,16
2.350391731955326,0.44196253204816227,16
2.360393398899817,0.36981289143353185,16
2.3703950658443076,0.34857967386408223,16
2.3803967327887983,0.2740954445809596,16
2.390398399733289,0.21840527226286352,16
2.4004000666777796,0.18331924469118543,16
2.4104017336222703,0.12402271430874588,16
2.4204034005667614,0.09273974321426316,16
2.430405067511252,0.06308068983871508,16
2.4404067344557427,0.043406148488396995,16
2.4504084014002334,0.015037525379178131,16
2.460410068344724,0.005913752392417454,16
2.4704117352892148,0.01175193554239775,16
2.480413402233706,0.005846602163142767,16
2.4904150691781965,0.001971314964842464,16
2.5004167361226872,0.009546388782706371,16
2.510418403067178,-0.008815602621093021,16
2.5204200700116686,-0.01626746351400426,16
2.5304217369561592,-0.007456849155068811,16
2.5404234039006504,-0.0002802490581917602,16
2.550425070845141,-0.0202745908798359,16
2.5604267377896317,-0.03004072561096377,16
2.5704284047341224,-0.049030305530014785,16
2.580430071678613,-0.09835328370984624,16
2.590431738623104,-0.11859048025820292,16
2.600433405567595,-0.16193936964977,16
2.6104350725120855,-0.22248385982554636,16
2.620436739456576,-0.23250736402311645,16
2.630438406401067,-0.29418288983781177,16
2.6404400733455575,-0.3622961467909516,16
2.6504417402900486,-0.44040848822741524,16
2.6604434072345393,-0.4587997940118934,16
2.67044507417903,-0.5297689196415364,16
2.6804467411235207,-0.5937628889524648,16
2.6904484080680113,-0.6495047337507166,16
2.700450075012502,-0.6890194196656316,16
2.710451741956993,-0.735424725694952,16
2.720453408901484,-0.7609702847035438,16
2.7304550758459745,-0.7798246738085289,16
2.740456742790465,-0.7828275905999957,16
2.750458409734956,-0.7677973045806231,16
2.7604600766794465,-0.7469167309689735,16
2.7704617436239376,-0.7405211969257984,16
2.7804634105684283,-0.6718081474283772,16
2.790465077512919,-0.6217327956996456,16
2.8004667444574096,-0.5362930624731008,16
2.8104684114019003,-0.4639300130986418,16
2.820470078346391,-0.41530285515037424,16
2.830471745290882,-0.28083731000793766,16
2.8404734122353728,-0.2079898781839935,16
2.8504750791798634,-0.09507968904002359,16
2.860476746124354,0.03862968353253704,16
2.8704784130688448,0.11134674999439725,16
2.880480080013336,0.19165883853302607,16
2.8904817469578266,0.29861565279656305,16
2.9004834139023172,0.42193260330372445,16
2.910485080846808,0.5093540740343647,16
2.9204867477912986,0.5529327717401544,16
2.9304884147357892,0.623172204562779,16
2.9404900816802804,0.6876069426592033,16
2.950491748624771,0.7335204795037299,16
2.9604934155692617,0.765484373516131,16
2.9704950825137524,0.7699628375932837,16
2.980496749458243,0.7845717876123062,16
2.9904984164027337,0.7652123158609566,16
3.000500083347225,0.753611463761712,16
3.0105017502917155,0.7132150675489556,16
3.020503417236206,0.713035638085055,16
3.030505084180697,0.6449200182184455,16
3.0405067511251875,0.6109545508381474,16
3.050508418069678,0.5358351910781107,16
3.0605100850141693,0.4710241111714241,16
3.07051175195866,0.40409680044288937,16
3.0805134189031507,0.36749141836234256,16
3.0905150858476413,0.30327855517794183,16
3.100516752792132,0.2552758184845719,16
3.1105184197366227,0.18020230005391288,16
3.120520086681114,0.15649298438923506,16
3.1305217536256045,0.12201996500984943,16
3.140523420570095,0.07276509228531047,16
3.150525087514586,0.03964528833916822,16
3.1605267544590765,0.029856723373246692,16
3.170528421403567,0.017176126755778155,16
3.1805300883480583,0.021298533008554887,16
3.190531755292549,0.0018922580617584859,16
3.2005334222370396,0.0007801465007620868,16
3.2105350891815303,-0.004950093347379679,16
3.220536756126021,0.0011912857593090601,16
3.230538423070512,0.003953008037118423,16
3.2405400900150028,0.005815544040454921,16
3.2505417569594934,-0.004389901442024303,16
3.260543423903984,-0.024079428143869708,16
3.270545090848475,-0.029409871193577575,16
3.2805467577929655,-0.06463484211663437,16
3.2905484247374566,-0.06798755806861366,16
3.3005500916819472,-0.11008421628267259,16
3.310551758626438,-0.13773843036114897,16
3.3205534255709286,-0.17155364543062432,16
3.3305550925154193,-0.22881713583533872,16
3.34055675945991,-0.2896906745315328,16
3.350558426404401,-0.344976203505484,16
3.3605600933488917,-0.40756808411646195,16
3.3705617602933824,-0.4604605881136449,16
3.380563427237873,-0.5209393824675749,16
3.3905650941823637,-0.5864840230536165,16
3.4005667611268544,-0.6133995083106621,16
3.4105684280713455,-0.67601414078201,16
3.420570095015836,-0.7259328852590193,16
3.430571761960327,-0.7400716878127178,16
3.4405734289048175,-0.7656133329582915,16
3.450575095849308,-0.7851751057235181,16
3.460576762793799,-0.7535991691778304,16
3.47057842973829,-0.7725529441431713,16
3.4805800966827807,-0.7355030960349519,16
3.4905817636272714,-0.6833190748934822,16
3.500583430571762,-0.6452754419028449,16
3.5105850975162527,-0.5849582947746522,16
3.5205867644607434,-0.5144623156613775,16
3.5305884314052345,-0.4285204506637563,16
3.540590098349725,-0.3549601857792909,16
3.550591765294216,-0.2542132837228061,16
3.5605934322387065,-0.14862628048227203,16
3.570595099183197,-0.03386258262726223,16
3.5805967661276883,0.056256541978975706,16
3.590598433072179,0.1705874233566194,16
3.6006001000166696,0.26918271984849035,16
3.6106017669611603,0.37759687445769957,16
3.620603433905651,0.4584296450686447,16
3.6306051008501417,0.5388347321019721,16
3.6406067677946328,0.596850822835427,16
3.6506084347391234,0.6627923142148261,16
3.660610101683614,0.7212869626939622,16
3.670611768628105,0.7561677618830673,16
3.6806134355725955,0.7600742888592358,16
3.690615102517086,0.7893670108273144,16
3.7006167694615772,0.7674182283287537,16
3.710618436406068,0.7584847404718971,16
3.7206201033505586,0.7517081745053688,16
3.7306217702950493,0.7216516623000447,16
3.74062343723954,0.6648255067959116,16
3.7506251041840306,0.6020078996967037,16
3.7606267711285217,0.5642747344418676,16
3.7706284380730124,0.5040055730996016,16
3.780630105017503,0.4344235730987741,16
3.7906317719619937,0.3927007109209682,16
3.8006334389064844,0.3245393735350268,16
3.810635105850975,0.26982021758441305,16
3.820636772795466,0.22373789239785957,16
3.830638439739957,0.16509677282121749,16
3.8406401066844476,0.12754589074615644,16
3.8506417736289382,0.09649542554006126,16
3.860643440573429,0.054816840480186355,16
3.87064510751792,0.04145617073414135,16
3.8806467744624107,0.023745299379428396,16
3.8906484414069014,0.03619371439744812,16
3.900650108351392,2.4890024050287438e-05,16
3.9106517752958827,-0.001765227875593454,16
3.9206534422403734,0.01834537699407535,16
3.9306551091848645,0.03334159118588884,16
3.940656776129355,-0.014212706135000298,16
3.950658443073846,0.002064008485195267,16
3.9606601100183365,0.0026550126334831505,16
3.970661776962827,-0.008952953625790173,16
3.980663443907318,-0.024585234069415617,16
3.990665110851809,-0.04873637342686223,16
4.000666777796299,-0.06217121965772997,16
4.01066844474079,-0.08356200933015197,16
4.020670111685281,-0.1194110644296452,16
4.030671778629772,-0.1434752164795717,16
4.040673445574263,-0.2040876629094656,16
4.0506751125187535,-0.23721873132378024,16
4.060676779463244,-0.3037660763478584,16
4.070678446407735,-0.3682430598964734,16
4.0806801133522255,-0.4343323674850908,16
4.090681780296716,-0.48652287783261244,16
4.100683447241207,-0.5580688885975529,16
4.1106851141856975,-0.6078299413492428,16
4.120686781130188,-0.6398178886196715,16
4.130688448074679,-0.6876799785011344,16
4.14069011501917,-0.7352979225420542,16
4.150691781963661,-0.7442317357908623,16
4.160693448908152,-0.7911077128673552,16
4.170695115852642,-0.7619263131905233,16
4.180696782797133,-0.7752979276877919,16
4.190698449741624,-0.7551942697023651,16
4.200700116686114,-0.7219259077876888,16
4.210701783630605,-0.6733661675526561,16
4.220703450575096,-0.6221527008651319,16
4.2307051175195864,-0.565076334944955,16
4.240706784464077,-0.46571639123721165,16
4.250708451408569,-0.3908544908380233,16
4.260710118353059,-0.3056726753688045,16
4.27071178529755,-0.19238753141357276,16
4.280713452242041,-0.07744689633918964,16
4.290715119186531,-0.0054106030305214,16
4.300716786131022,0.11633702518947503,16
4.310718453075513,0.21401291555408014,16
4.320720120020003,0.33677069239592744,16
4.330721786964494,0.4117062682904238,16
4.340723453908985,0.48843488375431715,16
4.350725120853475,0.5822309406271451,16
4.360726787797966,0.6312136334624773,16
4.370728454742458,0.6834103862526185,16
4.380730121686948,0.7177319130656262,16
4.390731788631439,0.7459789339533558,16
4.40073345557593,0.7697698883438402,16
4.41073512252042,0.7753297195240516,16
4.420736789464911,0.7633533206803419,16
4.430738456409402,0.7621034682446485,16
4.440740123353892,0.6999447296179938,16
4.450741790298383,0.682344034267827,16
4.460743457242874,0.6500527840789682,16
4.470745124187364,0.5865526057533725,16
4.480746791131855,0.5182128831734146,16
4.490748458076347,0.4814712982682189,16
4.500750125020837,0.4237737486102647,16
4.510751791965328,0.3651303433879895,16
4.520753458909819,0.28304417813246796,16
4.530755125854309,0.24129047638276324,16
4.5407567927988,0.19686408131348557,16
4.550758459743291,0.15703532251866725,16
4.560760126687781,0.10038323181766638,16
4.570761793632272,0.083693392183011,16
4.580763460576763,0.07714962789164408,16
4.590765127521253,0.0316439611582031,16
4.600766794465745,0.0018954745191637513,16
4.6107684614102356,0.01934006115479217,16
4.620770128354726,-0.005574358058663239,16
4.630771795299217,-0.016877874322060657,16
4.640773462243708,0.0006934781363648949,16
4.650775129188198,-0.004373472538346595,16
4.660776796132689,-0.0009719646774415884,16
4.67077846307718,0.00791340555685604,16
4.68078013002167,-0.00040436811921359516,16
4.690781796966161,-0.016717053700637065,16
4.700783463910652,-0.013504711769220863,16
4.710785130855142,-0.040963625373055174,16
4.720786797799634,-0.07291531469483664,16
4.7307884647441245,-0.1005378299434651,16
4.740790131688615,-0.16356318021885197,16
4.750791798633106,-0.1767077114158364,16
4.7607934655775965,-0.239880899517265,16
4.770795132522087,-0.27472653800445107,16
4.780796799466578,-0.3627289282354693,16
4.7907984664110685,-0.4102104019757503,16
4.800800133355559,-0.4725189512683892,16
4.81080180030005,-0.5425785971545302,16
4.820803467244541,-0.5903178220071781,16
4.830805134189032,-0.6333239186301761,16
4.840806801133523,-0.6769305777375841,16
4.8508084680780135,-0.7037827927468675,16
4.860810135022504,-0.7385180677531284,16
4.870811801966995,-0.7630612096460281,16
4.8808134689114855,-0.7895965383969303,16
4.890815135855976,-0.7788622613402911,16
4.900816802800467,-0.7476484741911522,16
4.9108184697449575,-0.7313355719766331,16
4.920820136689448,-0.7025868770158961,16
4.930821803633939,-0.653564692172892,16
4.9408234705784295,-0.5831572898289001,16
4.950825137522921,-0.5209440852905196,16
4.960826804467412,-0.4323354876989967,16
4.970828471411902,-0.33625049334327795,16
4.980830138356393,-0.24716174450373277,16
4.990831805300884,-0.1282383551598425,16
5.0008334722453744,-0.03494935426689575,16
5.010835139189865,0.07685434959246516,16
5.020836806134356,0.17887819793659956,16
5.0308384730788465,0.2723207623483519,16
5.040840140023337,0.3756396753958791,16
5.050841806967828,0.4635054677732567,16
5.0608434739123185,0.5286066198641574,16
5.07084514085681,0.5990317992981717,16
5.080846807801301,0.660942880800567,16
5.090848474745791,0.7063987786180481,16
5.100850141690282,0.7409144600342554,16
5.110851808634773,0.7689806172760875,16
5.120853475579263,0.7984560522924077,16
5.130855142523754,0.7653853849599178,16
5.140856809468245,0.7433655929367555,16
5.150858476412735,0.739777527661246,16
5.160860143357226,0.6868211108833876,16
5.170861810301717,0.6658613593949457,16
5.180863477246208,0.6081175872023356,16
5.190865144190699,0.5553357236911666,16
5.20086681113519,0.5091759419424517,16
5.21086847807968,0.4433569495049738,16
5.220870145024171,0.3674411960538646,16
5.230871811968662,0.3275265654118046,16
5.240873478913152,0.2646219108745222,16
5.250875145857643,0.20489385691991233,16
5.260876812802134,0.1733385067881517,16
5.270878479746624,0.12902889633145923,16
5.280880146691115,0.08670590949921868,16
5.290881813635606,0.07697974353329179,16
5.300883480580097,0.048015334977382224,16
5.310885147524588,0.02117625721933599,16
5.320886814469079,0.027337839714972063,16
5.330888481413569,0.013418052113905643,16
5.34089014835806,-0.011884479736348647,16
5.350891815302551,0.0059915511116263006,16
5.360893482247041,-0.0048442037124405745,16
5.370895149191532,0.013875941570201637,16
5.380896816136023,-0.0044464935733251245,16
5.390898483080513,0.005886493395828968,16
5.400900150025004,-0.017537689102829775,16
5.410901816969495,-0.03912359369453257,16
5.420903483913986,-0.03634521639013673,16
5.430905150858477,-0.06600729500819569,16
5.440906817802968,-0.10073507388817282,16
5.450908484747458,-0.1128611985394113,16
5.460910151691949,-0.174752326248676,16
5.47091181863644,-0.2017605381746022,16
5.48091348558093,-0.2598821286618895,16
5.490915152525421,-0.32767524685877464,16
5.500916819469912,-0.36905936064831046,16
5.510918486414402,-0.4378412705405224,16
5.520920153358893,-0.5027177739739446,16
5.5309218203033845,-0.5492637400981876,16
5.540923487247875,-0.5956531580649702,16
5.550925154192366,-0.6575573163278243,16
5.5609268211368565,-0.7043323493228666,16
5.570928488081347,-0.7197953313373835,16
5.580930155025838,-0.7481043456144277,16
5.590931821970329,-0.7888621266387508,16
5.600933488914819,-0.7753319396485878,16
5.61093515585931,-0.7905218456412986,16
5.620936822803801,-0.7500394927636661,16
5.630938489748291,-0.7246564469616585,16
5.640940156692782,-0.6663363382594739,16
5.6509418236372735,-0.637720546344342,16
5.660943490581764,-0.5403295706397033,16
5.670945157526255,-0.4779140270977046,16
5.6809468244707455,-0.3717268023560526,16
5.690948491415236,-0.2779060551698008,16
5.700950158359727,-0.20252447953354535,16
5.7109518253042175,-0.0794703287141547,16
5.720953492248708,0.03437663262456103,16
5.730955159193199,0.11668185077099395,16
5.7409568261376895,0.23309038170545535,16
5.75095849308218,0.3136677193269774,16
5.760960160026672,0.406534819970774,16
5.7709618269711624,0.5047815335676297,16
5.780963493915653,0.5803183510852102,16
5.790965160860144,0.6457167637975296,16
5.8009668278046345,0.7092154619676289,16
5.810968494749125,0.7370046913377338,16
5.820970161693616,0.7689009184596202,16
5.8309718286381065,0.7824116831998074,16
5.840973495582597,0.7747768586208784,16
5.850975162527088,0.7769732940546792,16
5.8609768294715785,0.7570232463065737,16
5.870978496416069,0.7172775608580272,16
5.880980163360561,0.6923964522939299,16
5.890981830305051,0.6350319358887375,16
5.900983497249542,0.563830647972733,16
5.910985164194033,0.5381137287223037,16
5.920986831138523,0.4822902135333634,16
5.930988498083014,0.41660944389202637,16
5.940990165027505,0.3510141571547785,16
5.950991831971995,0.28457352326367236,16
5.960993498916486,0.2245227967224633,16
5.970995165860977,0.18953712156682873,16
5.9809968328054675,0.1414498232919423,16
5.990998499749958,0.11002753663467267,16
6.00100016669445,0.08719714187468644,16
6.01100183363894,0.06001751946820999,16
6.021003500583431,0.02230034573653321,16
6.031005167527922,0.014007289800398514,16
6.041006834472412,0.016262989830848215,16
6.051008501416903,-0.016817693297180216,16
6.061010168361394,-0.004805947178682876,16
6.071011835305884,0.007511166501809,16
6.081013502250375,0.006540990159345832,16
6.091015169194866,0.011359331866844975,16
6.101016836139356,0.007029070014736651,16
6.111018503083848,0.00538563494550983,16
6.121020170028339,-0.015634261153504074,16
6.131021836972829,-0.005822744962176801,16
6.14102350391732,-0.035595102494512657,16
6.151025170861811,-0.0661046376003206,16
6.161026837806301,-0.119321630586984,16
6.171028504750792,-0.15052756019263436,16
6.181030171695283,-0.180290628164688,16
6.191031838639773,-0.21900587283687142,16
6.201033505584264,-0.2688155843883302,16
6.211035172528755,-0.33504814790166343,16
6.221036839473245,-0.3995657167373114,16
6.231038506417737,-0.45939777315127567,16
6.241040173362228,-0.5177632635423897,16
6.251041840306718,-0.576400407550179,16
6.261043507251209,-0.6202422332948676,16
6.2710451741957,-0.6586773072256802,16
6.28104684114019,-0.7215153037978762,16
6.291048508084681,-0.751363077614608,16
6.301050175029172,-0.7598186938543682,16
6.311051841973662,-0.7750694981499793,16
6.321053508918153,-0.7761903394349948,16
6.331055175862644,-0.7652484989548455,16
6.341056842807134,-0.7409228270858548,16
6.351058509751626,-0.6773313208827805,16
6.361060176696117,-0.6595444818542378,16
6.371061843640607,-0.5944917902401845,16
6.381063510585098,-0.4886070845996924,16
6.391065177529589,-0.41926644337104413,16
6.401066844474079,-0.3110571052555354,16
6.41106851141857,-0.24371841299653804,16
6.421070178363061,-0.12016334195686769,16
6.431071845307551,-0.03041952401634413,16
6.441073512252042,0.08676602514575321,16
6.451075179196533,0.18112008210074812,16
6.461076846141024,0.29070095735888496,16
6.471078513085515,0.36492450889970063,16
6.4810801800300055,0.48703251847962525,16
6.491081846974496,0.5437961830094183,16
6.501083513918987,0.6040984844643057,16
6.5110851808634775,0.6633306431841153,16
6.521086847807968,0.6916196596952942,16
6.531088514752459,0.7612437054625116,16
6.54109018169695,0.7672946717091709,16
6.55109184864144,0.7859887886947795,16
6.561093515585931,0.7656872263696405,16
6.571095182530422,0.751384051786691,16
6.581096849474913,0.7393235282558146,16
6.591098516419404,0.6919903477386825,16
6.6011001833638945,0.6759947391444018,16
6.611101850308385,0.6087213492403437,16
6.621103517252876,0.5439580800552898,16
6.6311051841973665,0.48225924642855905,16
6.641106851141857,0.4503888352529845,16
6.651108518086348,0.3779738879797487,16
6.6611101850308385,0.32704501787140394,16
6.671111851975329,0.24708187926665973,16
6.68111351891982,0.20694166717460752,16
6.6911151858643105,0.15314868138674406,16
6.701116852808802,0.12195653428541721,16
6.711118519753293,0.08563281584281403,16
6.721120186697783,0.05305831471324338,16
6.731121853642274,0.057787583264171064,16
6.741123520586765,0.028491909442292854,16
6.7511251875312555,0.028012194783319427,16
6.761126854475746,0.012361655017252875,16
6.771128521420237,0.009796070108218442,16
6.7811301883647275,-0.012235432059808087,16
6.791131855309218,0.016012399944926925,16
6.801133522253709,0.024652368701129513,16
6.8111351891982,-0.0030642060108336485,16
6.821136856142691,-0.014891986894510918,16
6.831138523087182,-0.004823324990841028,16
6.841140190031672,-0.03297051823528896,16
6.851141856976163,-0.028317969017422326,16
6.861143523920654,-0.07038306124105372,16
6.871145190865144,-0.09309922177399932,16
6.881146857809635,-0.11860244337318394,16
6.891148524754126,-0.17240599439609922,16
6.901150191698616,-0.20767725261825035,16
6.911151858643107,-0.2633148534761762,16
6.921153525587598,-0.3079044021932332,16
6.931155192532089,-0.3711556072148894,16
6.94115685947658,-0.4294013942524596,16
6.951158526421071,-0.47622185945441314,16
6.961160193365561,-0.550768336873804,16
6.971161860310052,-0.6036410017567485,16
6.981163527254543,-0.648673975506432,16
6.991165194199033,-0.6921291055157609,16
7.001166861143524,-0.7273756630037876,16
7.011168528088015,-0.7658180875847903,16
7.021170195032505,-0.7802170889082191,16
7.031171861976996,-0.7731734357524053,16
7.041173528921487,-0.7717575501163783,16
7.051175195865978,-0.7535908758113883,16
7.061176862810469,-0.707977299744627,16
7.07117852975496,-0.6753170708536264,16
7.08118019669945,-0.6209534360078401,16
7.091181863643941,-0.5556117884735848,16
7.101183530588432,-0.48053806186012354,16
7.111185197532922,-0.35859615914826287,16
7.121186864477413,-0.2987394696630848,16
7.131188531421904,-0.1644555704170651,16
7.141190198366394,-0.07977706474321095,16
7.151191865310885,0.0182845026005138,16
7.161193532255377,0.13398522218364053,16
7.171195199199867,0.22209873813516734,16
7.181196866144358,0.3073985327671682,16
7.191198533088849,0.4106071136670447,16
7.201200200033339,0.5167351590956176,16
7.21120186697783,0.5736180233275225,16
7.221203533922321,0.6537746093428941,16
7.231205200866811,0.6857071255737128,16
7.241206867811302,0.7424396931107469,16
7.251208534755793,0.7385200114885657,16
7.261210201700283,0.7957509482085834,16
7.271211868644774,0.7951000766724589,16
7.2812135355892655,0.7844878363051817,16
7.291215202533756,0.7447762408900067,16
7.301216869478247,0.7234289692042309,16
7.311218536422738,0.6911968818556364,16
7.321220203367228,0.6371195787822506,16
7.331221870311719,0.5687824355788218,16
7.34122353725621,0.5245800607827527,16
7.3512252042007,0.4779181795477359,16
7.361226871145191,0.40884986902900555,16
7.371228538089682,0.3579441809965723,16
7.381230205034172,0.280641022287052,16
7.391231871978664,0.2316510052218538,16
7.4012335389231545,0.17957347517842437,16
7.411235205867645,0.14528314045061957,16
7.421236872812136,0.10806893796547427,16
7.4312385397566265,0.07464094439091583,16
7.441240206701117,0.044180718060266716,16
7.451241873645608,0.04876662635852861,16
7.4612435405900985,0.020355477397967222,16
7.471245207534589,0.011112521223294796,16
7.48124687447908,-0.00134879288528342,16
7.4912485414235706,0.004870982264634813,16
7.501250208368061,-0.009677755974189402,16
7.511251875312553,-0.0002574945108772577,16
7.5212535422570435,-0.0010021396596358973,16
7.531255209201534,-0.02470083247049674,16
7.541256876146025,-0.024810503522429774,16
7.5512585430905155,-0.03023418333422969,16
7.561260210035006,-0.037156978256381944,16
7.571261876979497,-0.03975349124805798,16
7.5812635439239875,-0.08558821792099942,16
7.591265210868478,-0.09374420033143527,16
7.601266877812969,-0.1586088980260143,16
7.6112685447574595,-0.19443762463700612,16
7.62127021170195,-0.2521492875638385,16
7.631271878646442,-0.29470129558170405,16
7.641273545590932,-0.3274039206455728,16
7.651275212535423,-0.4007805360006315,16
7.661276879479914,-0.459951171160443,16
7.671278546424404,-0.5078879835835719,16
7.681280213368895,-0.5793116446018445,16
7.691281880313386,-0.6389777212350203,16
7.7012835472578764,-0.6689277603846612,16
7.711285214202367,-0.6969541622308933,16
7.721286881146858,-0.7326664643651313,16
7.7312885480913485,-0.7737328940841389,16
7.74129021503584,-0.776423054906781,16
7.751291881980331,-0.7683627379396877,16
7.761293548924821,-0.7525220905222709,16
7.771295215869312,-0.7275342734164297,16
7.781296882813803,-0.6845708210033107,16
7.791298549758293,-0.6213501604511417,16
7.801300216702784,-0.5766459840478011,16
7.811301883647275,-0.5084937923715145,16
7.821303550591765,-0.43433457040442297,16
7.831305217536256,-0.33538044882915086,16
7.841306884480747,-0.26017473505654015,16
7.851308551425237,-0.11778581809925784,16
7.861310218369729,-0.023495325975160845,16
7.87131188531422,0.08056945750977332,16
7.88131355225871,0.16523627245715147,16
7.891315219203201,0.2774492188949742,16
7.901316886147692,0.35789137927339876,16
7.911318553092182,0.46437537569094534,16
7.921320220036673,0.5492537893930188,16
7.931321886981164,0.6213043385069573,16
7.941323553925654,0.6928193136775511,16
7.951325220870145,0.7281045415825731,16
7.961326887814636,0.7779225584310185,16
7.971328554759126,0.7660390238190562,16
7.981330221703618,0.798586977408787,16
7.991331888648109,0.7777308016880721,16
8.001333555592598,0.7512214534981432,16
8.01133522253709,0.7174894669889484,16
8.02133688948158,0.7050480139728157,16
8.031338556426071,0.6604932540011819,16
8.041340223370563,0.6118180697794914,16
8.051341890315053,0.5567260548055067,16
8.061343557259544,0.4940048454275615,16
8.071345224204034,0.4365217260247553,16
8.081346891148526,0.3570740958138838,16
8.091348558093015,0.33290233666434754,16
8.101350225037507,0.2734520958832736,16
8.111351891981997,0.21049713398376582,16
8.121353558926488,0.1593126738691678,16
8.131355225870978,0.1401981152860693,16
8.14135689281547,0.09339159609199942,16
8.151358559759961,0.07092208143029567,16
8.161360226704451,0.03778763011513858,16
8.171361893648942,0.031996057228128864,16
8.181363560593432,0.00590056378522074,16
8.191365227537924,0.016631063830016744,16
8.201366894482414,0.005703049895364779,16
8.211368561426905,-0.018717780676069145,16
8.221370228371395,-0.018882947399428526,16
8.231371895315887,0.003838846460614969,16
8.241373562260376,-0.016669599535922786,16
8.251375229204868,0.01393913570118082,16
8.261376896149358,-0.03711107003898141,16
8.27137856309385,-0.043942612878373456,16
8.28138023003834,-0.040338466453606725,16
8.29138189698283,-0.06928815941689936,16
8.301383563927322,-0.08754303620508344,16
8.311385230871812,-0.127276482723623,16
8.321386897816303,-0.16547186631044652,16
8.331388564760793,-0.20416743571156887,16
8.341390231705285,-0.2639659671588537,16
8.351391898649775,-0.31016747710653536,16
8.361393565594266,-0.3846276266131202,16
8.371395232538756,-0.4459125790641355,16
8.381396899483248,-0.4980980995659057,16
8.391398566427739,-0.5399150361179593,16
8.401400233372229,-0.6102554382660051,16
8.41140190031672,-0.6506793986566893,16
8.42140356726121,-0.6821053803610557,16
8.431405234205702,-0.7304450836420029,16
8.441406901150192,-0.7433146350326495,16
8.451408568094683,-0.7764730236419723,16
8.461410235039173,-0.7957600200772349,16
8.471411901983664,-0.7663144800936819,16
8.481413568928154,-0.7473650500144806,16
8.491415235872646,-0.7315090194195493,16
8.501416902817137,-0.6579417486972744,16
8.511418569761627,-0.6054731757183995,16
8.521420236706119,-0.5317435253926661,16
8.531421903650608,-0.4589638601448043,16
8.5414235705951,-0.36421162699821136,16
8.55142523753959,-0.2879804554605625,16
8.561426904484081,-0.19694817063474138,16
8.571428571428571,-0.06894216679543622,16
8.581430238373063,0.025785602298116408,16
8.591431905317553,0.12738573218665003,16
8.601433572262044,0.2300097982344057,16
8.611435239206534,0.3417842723358146,16
8.621436906151025,0.39577930851262694,16
8.631438573095517,0.5153346842114898,16
8.641440240040007,0.6006873073881587,16
8.651441906984498,0.6415356562141258,16
8.661443573928988,0.6987592970759249,16
8.67144524087348,0.7440793022638532,16
8.68144690781797,0.7822752356822058,16
8.691448574762461,0.762716894867029,16
8.70145024170695,0.7944341146384997,16
8.711451908651442,0.7719516686038238,16
8.721453575595932,0.74284862329205,16
8.731455242540424,0.7129184022438458,16
8.741456909484915,0.6928090316883024,16
8.751458576429405,0.6259242860795955,16
8.761460243373897,0.5886498222672735,16
8.771461910318386,0.5117713398601983,16
8.781463577262878,0.48479491027304095,16
8.791465244207368,0.4230434961286953,16
8.80146691115186,0.35327356484935424,16
8.811468578096349,0.303100333529326,16
8.82147024504084,0.23311867356969715,16
8.83147191198533,0.18448026461227043,16
8.841473578929822,0.1487511889545561,16
8.851475245874314,0.12242807788655716,16
8.861476912818803,0.06961421219629792,16
8.871478579763295,0.04380803991338576,16
8.881480246707785,0.030172526246458786,16
8.891481913652276,0.02108332772399426,16
8.901483580596766,0.016522738157813105,16
8.911485247541258,0.007741846304635398,16
8.921486914485747,0.0019880521946518967,16
8.931488581430239,0.011053429167748891,16
8.941490248374729,0.009313473445544866,16
8.95149191531922,-0.007284789969171839,16
8.96149358226371,-0.018174850642861912,16
8.971495249208202,0.0011341756116243391,16
8.981496916152693,-0.03161109144534206,16
8.991498583097183,-0.023695578716965492,16
9.001500250041675,-0.04690919842840333,16
9.011501916986164,-0.08720723776624395,16
9.021503583930656,-0.10928093614711037,16
9.031505250875146,-0.1427912766809488,16
9.041506917819637,-0.1939755817973863,16
9.051508584764127,-0.24553108604886173,16
9.061510251708619,-0.2823030297743738,16
9.071511918653108,-0.35130833498780734,16
9.0815135855976,-0.4070227363695964,16
9.091515252542091,-0.4596161566504367,16
9.101516919486581,-0.5145646820635246,16
9.111518586431073,-0.5752811118293012,16
9.121520253375563,-0.6495995409196732,16
9.131521920320054,-0.6809248453981163,16
9.141523587264544,-0.6954056608214324,16
9.151525254209036,-0.7456147220059948,16
9.161526921153525,-0.7782010065367921,16
9.171528588098017,-0.7653725793696993,16
9.181530255042507,-0.7618879618303613,16
9.191531921986998,-0.7648395515901288,16
9.20153358893149,-0.742135847212512,16
9.21153525587598,-0.6814516106499798,16
9.221536922820471,-0.6536958594253396,16
9.231538589764961,-0.5758635029270692,16
9.241540256709452,-0.5081845698188109,16
9.251541923653942,-0.4043202525159802,16
9.261543590598434,-0.33061475425398335,16
9.271545257542924,-0.21609406662472092,16
9.281546924487415,-0.139674338001686,16
9.291548591431905,-0.02825599373470295,16
9.301550258376396,0.08157893283203833,16
9.311551925320888,0.19506547521138382,16
9.321553592265378,0.30223870172257905,16
9.33155525920987,0.38736231341250926,16
9.34155692615436,0.46983778846119606,16
9.35155859309885,0.5506662749711184,16
9.36156026004334,0.6176606331605288,16
9.371561926987832,0.678537305195059,16
9.381563593932322,0.7132855675029496,16
9.391565260876813,0.7469310283144727,16
9.401566927821303,0.780134464704668,16
9.411568594765795,0.8000069458494197,16
9.421570261710285,0.7727770765641324,16
9.431571928654776,0.7728637458324485,16
9.441573595599268,0.7366838098188079,16
9.451575262543757,0.693076045828422,16
9.461576929488249,0.6587862288638605,16
9.471578596432739,0.6001974817590159,16
9.48158026337723,0.562968004869843,16
9.49158193032172,0.4949595944840435,16
9.501583597266212,0.42806189386830673,16
9.511585264210701,0.366277860135316,16
9.521586931155193,0.30774300640987606,16
9.531588598099683,0.2601187028409931,16
9.541590265044174,0.2064457805251127,16
9.551591931988666,0.14923770907903783,16
9.561593598933156,0.13122963498331663,16
9.571595265877647,0.08844780441662403,16
9.581596932822137,0.07419612606333142,16
9.591598599766629,0.03932888436291691,16
9.601600266711118,0.026809736197174777,16
9.61160193365561,0.016479030643860488,16
9.6216036006001,0.01380110761850215,16
9.631605267544591,0.00478263184072074,16
9.641606934489081,0.011655876176062993,16
9.651608601433573,0.009997690927790234,16
9.661610268378064,0.012185600205596711,16
9.671611935322554,-0.008705268284313509,16
9.681613602267046,-0.0056599810077912465,16
9.691615269211535,-0.018082209430587907,16
9.701616936156027,-0.023278750687940365,16
9.711618603100517,-0.051127703660044724,16
9.721620270045008,-0.050591276847359534,16
9.731621936989498,-0.10735344766088914,16
9.74162360393399,-0.13841029840949828,16
9.75162527087848,-0.16505714599616647,16
9.761626937822971,-0.2300733493059255,16
9.77162860476746,-0.28722508388455703,16
9.781630271711952,-0.315012389767222,16
9.791631938656444,-0.3673286169173588,16
9.801633605600934,-0.45114893068847745,16
9.811635272545425,-0.5029554123344931,16
9.821636939489915,-0.5657860607193478,16
9.831638606434407,-0.609572219993362,16
9.841640273378896,-0.6474635377485496,16
9.851641940323388,-0.715748429653226,16
9.861643607267878,-0.7236806551167024,16
9.87164527421237,-0.7565186762449803,16
9.881646941156859,-0.7674245390998947,16
9.89164860810135,-0.7798283694061237,16
9.901650275045842,-0.7649811491734513,16
9.911651941990332,-0.7502388445093359,16
9.921653608934824,-0.711757002187318,16
9.931655275879313,-0.6656785324673473,16
9.941656942823805,-0.6046488085928562,16
9.951658609768295,-0.5276688299628094,16
9.961660276712786,-0.46838048274048305,16
9.971661943657276,-0.3574913841799169,16
9.981663610601768,-0.27794716057335933,16
9.991665277546257,-0.16818080373186817,16
10.001666944490749,-0.07541206087154975,16
10.01166861143524,0.04195441126292211,16
10.02167027837973,0.13747869319182665,16
10.031671945324222,0.22793422562860416,16
10.041673612268712,0.33770247138510057,16
10.051675279213203,0.43116865312308733,16
10.061676946157693,0.5338288203445428,16
10.071678613102184,0.5987414046420066,16
10.081680280046674,0.644371807275457,16
10.091681946991166,0.6873855193045242,16
10.101683613935656,0.7400962812500242,16
10.111685280880147,0.7697912825702232,16
10.121686947824637,0.7728688008520931,16
10.131688614769129,0.7666148530229877,16
10.14169028171362,0.7612710605731425,16
10.15169194865811,0.7386062966866743,16
10.161693615602601,0.714099666154453,16
10.171695282547091,0.6694406185843635,16
10.181696949491583,0.633528211805078,16
10.191698616436073,0.5855545709633516,16
10.201700283380564,0.5225111303288318,16
10.211701950325054,0.4608045196076245,16
10.221703617269545,0.39430906132482735,16
10.231705284214035,0.3736513352154942,16
10.241706951158527,0.27686413349382133,16
10.251708618103018,0.23513989273340594,16
10.261710285047508,0.1873935631469009,16
10.271711951992,0.14095458239750325,16
10.28171361893649,0.1038758601765509,16
10.291715285880981,0.08916688205125053,16
10.30171695282547,0.039005233959702304,16
10.311718619769962,0.035875577246423596,16
10.321720286714452,0.03507034311156909,16
10.331721953658944,0.005556663238863051,16
10.341723620603434,0.0011266213972108779,16
10.351725287547925,0.003537761839602014,16
10.361726954492417,0.019885061537603495,16
10.371728621436906,0.003840871216012474,16
10.381730288381398,-0.015046695729084278,16
10.391731955325888,-0.002309209048735286,16
10.40173362227038,-0.0027122608399791524,16
10.41173528921487,-0.004503294545252794,16
10.42173695615936,-0.033483653454602,16
10.43173862310385,-0.04324854006712485,16
10.441740290048342,-0.08198106176059947,16
10.451741956992832,-0.11067007379068575,16
10.461743623937323,-0.13907466085309556,16
10.471745290881813,-0.1848114386707268,16
10.481746957826305,-0.2607551467431633,16
10.491748624770796,-0.3110789849334554,16
10.501750291715286,-0.3497089876702917,16
10.511751958659778,-0.401163397268092,16
10.521753625604267,-0.46913357987237736,16
10.531755292548759,-0.5273348666396114,16
10.541756959493249,-0.5708252767464979,16
10.55175862643774,-0.6473590103985818,16
10.56176029338223,-0.6761588053142935,16
10.571761960326722,-0.7201968929664769,16
10.581763627271211,-0.7653982836183926,16
10.591765294215703,-0.7705480044854262,16
10.601766961160195,-0.7819004694261386,16
10.611768628104684,-0.7888150676061372,16
10.621770295049176,-0.7598754805910697,16
10.631771961993666,-0.7346931563611424,16
10.641773628938157,-0.6841354703258836,16
10.651775295882647,-0.6486597357261726,16
10.661776962827139,-0.5600841198508758,16
10.671778629771628,-0.4934831572854834,16
10.68178029671612,-0.42242133372432294,16
10.69178196366061,-0.30495307647250913,16
10.701783630605101,-0.235263162116003,16
10.711785297549593,-0.1258732976502967,16
10.721786964494083,-0.013937807791474516,16
10.731788631438574,0.08246707475483586,16
10.741790298383064,0.17858721891889812,16
10.751791965327556,0.2926899746321872,16
10.761793632272045,0.38081614817793885,16
10.771795299216537,0.4571005047317806,16
10.781796966161027,0.5520147773429017,16
10.791798633105518,0.6178652180297736,16
10.801800300050008,0.6863760073738151,16
10.8118019669945,0.7305082238752811,16
10.82180363393899,0.7534496315029093,16
10.831805300883481,0.756276457469029,16
10.841806967827972,0.7806607602818695,16
10.851808634772462,0.7736649670182238,16
10.861810301716954,0.7673500923542084,16
10.871811968661444,0.7385264541998048,16
10.881813635605935,0.6981244733429791,16
10.891815302550425,0.6588186040441951,16
10.901816969494917,0.5994016894328442,16
10.911818636439406,0.5611536856278238,16
10.921820303383898,0.48948586971743235,16
10.931821970328388,0.41746976125749913,16
10.94182363727288,0.3551300928334104,16
10.95182530421737,0.3052801681621632,16
10.96182697116186,0.2698832938509977,16
10.971828638106352,0.1952121186358477,16
10.981830305050842,0.16268626838921646,16
10.991831971995333,0.12300955377062416,16
11.001833638939823,0.11274309629060938,16
11.011835305884315,0.06755514516018986,16
11.021836972828805,0.04062496546885812,16
11.031838639773296,0.02854915995142546,16
11.041840306717786,0.007721329351440831,16
11.051841973662277,0.003040228922153128,16
11.061843640606769,-0.006568020802236894,16
11.071845307551259,0.0006751080916219938,16
11.08184697449575,-0.0011783980868924427,16
11.09184864144024,-0.00668220336277483,16
11.101850308384732,0.009380821375571037,16
11.111851975329222,-0.025888456096077445,16
11.121853642273713,-0.0018716692259025964,16
11.131855309218203,-0.010074930447512037,16
11.141856976162694,-0.051514613065215216,16
11.151858643107184,-0.06530617945779266,16
11.161860310051676,-0.08319068204841565,16
11.171861976996166,-0.1250578317818138,16
11.181863643940657,-0.17530947240174408,16
11.191865310885149,-0.21782043875089188,16
11.201866977829638,-0.266513164693853,16
11.21186864477413,-0.3374633589675188,16
11.22187031171862,-0.4024079143309768,16
11.231871978663111,-0.4355802932179046,16
11.241873645607601,-0.4979930349273551,16
11.251875312552093,-0.572309603073334,16
11.261876979496583,-0.6045025154530678,16
11.271878646441074,-0.6387215389438675,16
11.281880313385564,-0.6890655451788641,16
11.291881980330055,-0.729089726831121,16
11.301883647274547,-0.7591551670401463,16
11.311885314219037,-0.7725807272381785,16
11.321886981163528,-0.7755137449725757,16
11.331888648108018,-0.7685178354301184,16
11.34189031505251,-0.7595911978411313,16
11.351891981997,-0.720535271692358,16
11.361893648941491,-0.649713219234775,16
11.37189531588598,-0.60902478473673,16
11.381896982830472,-0.5234701016836582,16
11.391898649774962,-0.45724751615412224,16
11.401900316719454,-0.364469043998645,16
11.411901983663945,-0.2791657259356918,16
11.421903650608435,-0.150114888590803,16
11.431905317552927,-0.06311576597992957,16
11.441906984497416,0.05443414110675038,16
11.451908651441908,0.12389309534898012,16
11.461910318386398,0.249246702948714,16
11.47191198533089,0.3513279056975622,16
11.481913652275379,0.42591865687537767,16
11.49191531921987,0.5119307441891785,16
11.50191698616436,0.5901283394896347,16
11.511918653108852,0.6563788390219562,16
11.521920320053344,0.7101500164199985,16
11.531921986997833,0.7590035396161199,16
11.541923653942325,0.7578314947098183,16
11.551925320886815,0.7822398298472092,16
11.561926987831306,0.7760310628412346,16
11.571928654775796,0.7736985551634292,16
11.581930321720288,0.7500038243456575,16
11.591931988664777,0.6994381876332642,16
11.601933655609269,0.6720809664294176,16
11.611935322553759,0.621473880614073,16
11.62193698949825,0.5923841698861223,16
11.63193865644274,0.5329845203017243,16
11.641940323387232,0.44914652747916584,16
11.651941990331723,0.41303617964241685,16
11.661943657276213,0.3498062216855257,16
11.671945324220705,0.26007390528639346,16
11.681946991165194,0.23757713071059505,16
11.691948658109686,0.19872953302631977,16
11.701950325054176,0.11989222304942612,16
11.711951991998667,0.09866566436315174,16
11.721953658943157,0.0836661943181028,16
11.731955325887649,0.048228331732822566,16
11.741956992832138,0.023504671556670687,16
11.75195865977663,0.012345967102756213,16
11.761960326721121,0.018908458784097595,16
11.771961993665611,-0.012369636752579447,16
11.781963660610103,0.006309733423978996,16
11.791965327554593,0.02070036277491002,16
11.801966994499084,-0.00988137990400505,16
11.811968661443574,0.00030342475343432475,16
11.821970328388065,-0.002892182342643812,16
11.831971995332555,-0.008682117632361569,16
11.841973662277047,-0.023510085557129832,16
11.851975329221537,-0.018126270067933468,16
11.861976996166028,-0.05682566587707223,16
11.87197866311052,-0.08102704796604879,16
11.88198033005501,-0.11328680760445262,16
11.891981996999501,-0.15173722378165486,16
11.90198366394399,-0.18711484878061926,16
11.911985330888482,-0.24358067573348027,16
11.921986997832972,-0.30928853725146144,16
11.931988664777464,-0.355377045942809,16
11.941990331721954,-0.432894010995498,16
11.951991998666445,-0.4873824179869608,16
11.961993665610935,-0.5222633496002835,16
11.971995332555426,-0.5764509293428003,16
11.981996999499916,-0.6519060748096207,16
11.991998666444408,-0.6923215627099754,16
12.0020003333889,-0.726659184152677,16
12.01200200033339,-0.7496081701318803,16
12.02200366727788,-0.7636519190189556,16
12.03200533422237,-0.7728869486936192,16
12.042007001166862,-0.7734510624395252,16
12.052008668111352,-0.7592691331415967,16
12.062010335055843,-0.7478739176241025,16
12.072012002000333,-0.6717465603923397,16
12.082013668944825,-0.6268255669643937,16
12.092015335889315,-0.5735645077874147,16
12.102017002833806,-0.5085766018707877,16
12.112018669778298,-0.4120279043829487,16
12.122020336722787,-0.30573067098549184,16
12.132022003667279,-0.22691069500805944,16
12.142023670611769,-0.12126490125286318,16
12.15202533755626,-0.027979889727177607,16
12.16202700450075,0.11048866875343337,16
12.172028671445242,0.19626252061087873,16
12.182030338389731,0.2945132345320011,16
12.192032005334223,0.37813666701935655,16
12.202033672278713,0.4678949617818332,16
12.212035339223204,0.5389568577059718,16
12.222037006167696,0.6159366386007155,16
12.232038673112186,0.6657025294836257,16
12.242040340056677,0.7394331723009887,16
12.252042007001167,0.7452414133026954,16
12.262043673945659,0.7852526774217637,16
12.272045340890148,0.7921438939468666,16
12.28204700783464,0.7822968095895522,16
12.29204867477913,0.7667580489302689,16
12.302050341723621,0.7301567554835929,16
12.312052008668111,0.699993519905192,16
12.322053675612603,0.6672967878072884,16
12.332055342557092,0.5898486324550501,16
12.342057009501584,0.5613123585094927,16
12.352058676446076,0.4817178627845975,16
12.362060343390565,0.44176211930752146,16
12.372062010335057,0.3858198526897872,16
12.382063677279547,0.30119077098204544,16
12.392065344224038,0.26701747293642064,16
12.402067011168528,0.22500062621505545,16
12.41206867811302,0.13868883418661412,16
12.42207034505751,0.1288176879506518,16
12.432072012002001,0.0925470439241429,16
12.44207367894649,0.07496309004369793,16
12.452075345890982,0.04428771992579196,16
12.462077012835474,0.03392634545483929,16
12.472078679779964,-0.004300888757025702,16
12.482080346724455,0.006350960709426853,16
12.492082013668945,-0.0053055992840738185,16
12.502083680613437,-0.020323892700492525,16
12.512085347557926,0.007454350689722676,16
12.522087014502418,0.005952995402186814,16
12.532088681446908,-0.008211993317702266,16
12.5420903483914,-0.004068436579759931,16
12.552092015335889,-0.023501246054802208,16
12.56209368228038,-0.017156267110765323,16
12.572095349224872,-0.02999103184252219,16
12.582097016169362,-0.06565767823779134,16
12.592098683113853,-0.10588254338456496,16
12.602100350058343,-0.1316358434059767,16
12.612102017002835,-0.1512020000395155,16
12.622103683947325,-0.2350645026974672,16
12.632105350891816,-0.26073072379529233,16
12.642107017836306,-0.3282094765478907,16
12.652108684780798,-0.4022516926918674,16
12.662110351725287,-0.45070456131908954,16
12.672112018669779,-0.4899271273683307,16
12.682113685614269,-0.5515998750877,16
12.69211535255876,-0.611251698958123,16
12.702117019503252,-0.6709273398494768,16
12.712118686447742,-0.7057905215416527,16
12.722120353392233,-0.7398738524602944,16
12.732122020336723,-0.7768517423278409,16
12.742123687281214,-0.7823802124531685,16
12.752125354225704,-0.7851436095723928,16
12.762127021170196,-0.7755785098405572,16
12.772128688114686,-0.7525292217273987,16
12.782130355059177,-0.7115159817733757,16
12.792132022003667,-0.6652903288646556,16
12.802133688948159,-0.6150669058556684,16
12.81213535589265,-0.5341473309131425,16
12.82213702283714,-0.44309390720386344,16
12.832138689781631,-0.3550948551810033,16
12.842140356726121,-0.26673850674001504,16
12.852142023670613,-0.16837785059409954,16
12.862143690615103,-0.06674676347954443,16
12.872145357559594,0.04982052089069365,16
12.882147024504084,0.17045998284437602,16
12.892148691448575,0.25766138895041196,16
12.902150358393065,0.34081987317764084,16
12.912152025337557,0.4213936886514653,16
12.922153692282048,0.5210169504888071,16
12.932155359226538,0.58384270734858,16
12.94215702617103,0.6405915728704993,16
12.95215869311552,0.6970653694762532,16
12.962160360060011,0.7466989064761648,16
12.9721620270045,0.7761337824725869,16
12.982163693948992,0.7651005837457484,16
12.992165360893482,0.7831974660753522,16
13.002167027837974,0.7602393464026636,16
13.012168694782464,0.7505645958323901,16
13.022170361726955,0.7079136044749574,16
13.032172028671445,0.6637069418295736,16
13.042173695615936,0.6548311039142604,16
13.052175362560428,0.5809687765648008,16
13.062177029504918,0.512521579522863,16
13.07217869644941,0.4483828359829525,16
13.0821803633939,0.3960485561035111,16
13.09218203033839,0.352540306335579,16
13.10218369728288,0.2895619179063439,16
13.112185364227372,0.24866200236141014,16
13.122187031171862,0.18668209397301838,16
13.132188698116353,0.14076563132011463,16
13.142190365060843,0.11262136739728665,16
13.152192032005335,0.06906683195948846,16
13.162193698949826,0.03404317298629283,16
13.172195365894316,0.018399781372234685,16
13.182197032838808,0.01885025902475655,16
13.192198699783297,0.02029379451876326,16
13.202200366727789,0.006334050844230393,16
13.212202033672279,-0.0020303007453764455,16
13.22220370061677,-0.0009331969870902754,16
13.23220536756126,-0.004197529710917295,16
13.242207034505752,0.0013287387861273554,16
13.252208701450241,0.013228894305134818,16
13.262210368394733,-0.013057969965787466,16
13.272212035339225,-0.041635465284271804,16
13.282213702283714,-0.04585443935041121,16
13.292215369228206,-0.05288806115655441,16
13.302217036172696,-0.06867964732676532,16
13.312218703117187,-0.10619329819600876,16
13.322220370061677,-0.15749683554721422,16
13.332222037006169,-0.205344007419972,16
13.342223703950658,-0.25816083109768506,16
13.35222537089515,-0.3134201789507372,16
13.36222703783964,-0.3644721832799198,16
13.372228704784131,-0.4128418555136815,16
13.382230371728621,-0.47089638950316026,16
13.392232038673113,-0.5251924183716122,16
13.402233705617604,-0.5799444924828713,16
13.412235372562094,-0.6290619124070811,16
13.422237039506586,-0.6848830478432343,16
13.432238706451075,-0.7143445966413259,16
13.442240373395567,-0.7413766984760901,16
13.452242040340057,-0.7888719975726944,16
13.462243707284548,-0.7670900529697924,16
13.472245374229038,-0.7877668968484658,16
13.48224704117353,-0.752284159911774,16
13.49224870811802,-0.7344700745753087,16
13.502250375062511,-0.6834554533366172,16
13.512252042007002,-0.6215656995646366,16
13.522253708951492,-0.5559000890868211,16
13.532255375895984,-0.48216997951742,16
13.542257042840474,-0.42036014809525746,16
13.552258709784965,-0.30509123535017946,16
13.562260376729455,-0.21777081493326234,16
13.572262043673947,-0.12051403174118369,16
13.582263710618436,-0.020632784056697922,16
13.592265377562928,0.10771350593658499,16
13.602267044507418,0.21666514907902107,16
13.61226871145191,0.3034042116181745,16
13.6222703783964,0.38902755528095706,16
13.63227204534089,0.4920340509869019,16
13.642273712285382,0.5504760539735818,16
13.652275379229872,0.6087960966869201,16
13.662277046174363,0.6758009988755526,16
13.672278713118853,0.7202582799562701,16
13.682280380063345,0.7500948119923074,16
13.692282047007835,0.7787257979779797,16
13.702283713952326,0.7863074755469497,16
13.712285380896816,0.7821155043538756,16
13.722287047841307,0.751775838537044,16
13.732288714785797,0.7308947683503602,16
13.742290381730289,0.6819029633407794,16
13.75229204867478,0.6365833212528061,16
13.76229371561927,0.6032353900783539,16
13.772295382563762,0.5437810311430882,16
13.782297049508252,0.4929287955994103,16
13.792298716452743,0.43025039031227585,16
13.802300383397233,0.3801052053775687,16
13.812302050341724,0.308287412314146,16
13.822303717286214,0.24707211741600024,16
13.832305384230706,0.21589146059532735,16
13.842307051175196,0.1656583760648608,16
13.852308718119687,0.10521328102258008,16
13.862310385064179,0.07845198370295305,16
13.872312052008668,0.06442473266819997,16
13.88231371895316,0.03226850813645771,16
13.89231538589765,0.03294670305779669,16
13.902317052842141,0.016038045337430265,16
13.912318719786631,0.00562950636264697,16
13.922320386731123,0.002008057528569573,16
13.932322053675612,0.01065264498500903,16
13.942323720620104,-0.011262119707807779,16
13.952325387564594,0.025176919187099918,16
13.962327054509085,0.006607601253455914,16
13.972328721453577,-0.005871332125205474,16
13.982330388398067,-0.012485041679185176,16
13.992332055342558,-0.01706695959130111,16
14.002333722287048,-0.036713687656047864,16
14.01233538923154,-0.07856907844734765,16
14.02233705617603,-0.10024419613815692,16
14.032338723120521,-0.1311353460924316,16
14.04234039006501,-0.18813190527623433,16
14.052342057009502,-0.24184648923163507,16
14.062343723953992,-0.28080702862843526,16
14.072345390898484,-0.33887299320871656,16
14.082347057842973,-0.4054499407894091,16
14.092348724787465,-0.45593819779841244,16
14.102350391731957,-0.5129363240971877,16
14.112352058676446,-0.5626122914840479,16
14.122353725620938,-0.6162637826898705,16
14.132355392565428,-0.677113600340649,16
14.14235705950992,-0.6989758461470773,16
14.152358726454409,-0.7378468544233895,16
14.1623603933989,-0.765536191038678,16
14.17236206034339,-0.7874004647468359,16
14.182363727287882,-0.7725006847818895,16
14.192365394232372,-0.7686531501716124,16
14.202367061176863,-0.7450052812030935,16
14.212368728121355,-0.704923730939309,16
14.222370395065845,-0.6677434565572947,16
14.232372062010336,-0.61609785201595,16
14.242373728954826,-0.5139790603570464,16
14.252375395899318,-0.43609917196460835,16
14.262377062843807,-0.3536504862471178,16
14.272378729788299,-0.26683681135300324,16
14.282380396732789,-0.15139966299809227,16
14.29238206367728,-0.05450313027358664,16
14.30238373062177,0.05234915167326969,16
14.312385397566262,0.15134749885540347,16
14.322387064510753,0.258326472243681,16
14.332388731455243,0.3658301610730084,16
14.342390398399735,0.4480769573928883,16
14.352392065344224,0.5228882906455761,16
14.362393732288716,0.6120013816402166,16
14.372395399233206,0.6637400545511932,16
14.382397066177697,0.7057173895004804,16
14.392398733122187,0.757038441590486,16
14.402400400066679,0.7891518608902786,16
14.412402067011168,0.7859123189127095,16
14.42240373395566,0.7929324077019534,16
14.432405400900151,0.7752653861491451,16
14.442407067844641,0.7134364033302669,16
14.452408734789133,0.7015579624687923,16
14.462410401733623,0.6706179808745945,16
14.472412068678114,0.6130746823844209,16
14.482413735622604,0.5734503630920997,16
14.492415402567095,0.5153912328039446,16
14.502417069511585,0.4366902286858861,16
14.512418736456077,0.40637358731504414,16
14.522420403400567,0.3247714703836573,16
14.532422070345058,0.27013828815388247,16
14.542423737289548,0.2277530985884163,16
14.55242540423404,0.17215379486342916,16
14.562427071178531,0.14150752104217007,16
14.57242873812302,0.09566333852831113,16
14.582430405067512,0.08788878047571344,16
14.592432072012002,0.051559513966085685,16
14.602433738956494,0.03809446437576098,16
14.612435405900984,0.01092307958360084,16
14.622437072845475,0.009600237362679549,16
14.632438739789965,0.005747133998977033,16
14.642440406734456,0.015335599576914627,16
14.652442073678946,-0.01441619917573768,16
14.662443740623438,-0.008979957354166157,16
14.67244540756793,0.007402987638181322,16
14.68244707451242,-0.016368802078621826,16
14.69244874145691,-0.020455889699198856,16
14.7024504084014,-0.0412885725528713,16
14.712452075345892,-0.024469342093235463,16
14.722453742290382,-0.047638040294526694,16
14.732455409234873,-0.07784000623932039,16
14.742457076179363,-0.10389052226833112,16
14.752458743123855,-0.1523942867635099,16
14.762460410068345,-0.1952041635089146,16
14.772462077012836,-0.2598871803413093,16
14.782463743957328,-0.28654942460256205,16
14.792465410901817,-0.3614187786338076,16
14.802467077846309,-0.43759065248832146,16
14.812468744790799,-0.47204960955904657,16
14.82247041173529,-0.5223668689196208,16
14.83247207867978,-0.5979352535968905,16
14.842473745624272,-0.6449669436771057,16
14.852475412568761,-0.6907609343310993,16
14.862477079513253,-0.7095254188810981,16
14.872478746457743,-0.7483447680801263,16
14.882480413402234,-0.7845884830931803,16
14.892482080346724,-0.7927812144151364,16
14.902483747291216,-0.7809413600601155,16
14.912485414235707,-0.7686874769077897,16
14.922487081180197,-0.731664275825514,16
14.932488748124689,-0.6721979959938751,16
14.942490415069178,-0.6244164905179292,16
14.95249208201367,-0.5691279199429937,16
14.96249374895816,-0.48519432822996994,16
14.972495415902651,-0.40429626017845754,16
14.982497082847141,-0.30708891876586175,16
14.992498749791633,-0.2053935410140526,16
15.002500416736122,-0.10815617848881796,16
15.012502083680614,0.011169425838114682,16
15.022503750625106,0.10027195976504646,16
15.032505417569595,0.21568493665839503,16
15.042507084514087,0.3208982664676341,16
15.052508751458577,0.40419628000373997,16
15.062510418403068,0.4742317424848724,16
15.072512085347558,0.5743748775188278,16
15.08251375229205,0.6346248852327743,16
15.09251541923654,0.6994911498722892,16
15.102517086181031,0.7403871413772143,16
15.11251875312552,0.7804216671685578,16
15.122520420070012,0.7824536191168956,16
15.132522087014504,0.7719443850423238,16
15.142523753958994,0.7646632223987375,16
15.152525420903485,0.7556056501845279,16
15.162527087847975,0.7335615444654737,16
15.172528754792467,0.6865679658168602,16
15.182530421736956,0.6452785579157392,16
15.192532088681448,0.5960168988710517,16
15.202533755625938,0.5497442726480904,16
15.21253542257043,0.4892571525259331,16
15.222537089514919,0.43516677257403763,16
15.23253875645941,0.3643431121681504,16
15.2425404234039,0.3178433685624041,16
15.252542090348392,0.241352948201165,16
15.262543757292883,0.20987947859364325,16
15.272545424237373,0.16088717193647004,16
15.282547091181865,0.12985277854402394,16
15.292548758126355,0.08307418306150936,16
15.302550425070846,0.059799730438010144,16
15.312552092015336,0.02849213107341057,16
15.322553758959828,0.01697559511027183,16
15.332555425904317,0.009690928813742979,16
15.342557092848809,0.00743163205124972,16
15.352558759793299,0.005142133662144177,16
15.36256042673779,-0.005711869318700042,16
15.372562093682282,0.01980090160175571,16
15.382563760626772,-0.010380929750059095,16
15.392565427571263,0.005909651841286209,16
15.402567094515753,-0.001274955848456505,16
15.412568761460244,-0.018475222234607472,16
15.422570428404734,-0.02281020377011598,16
15.432572095349226,-0.0692356064339821,16
15.442573762293716,-0.07780041985511559,16
15.452575429238207,-0.09656121875374386,16
15.462577096182697,-0.12118526699167081,16
15.472578763127188,-0.15791481622319012,16
15.48258043007168,-0.23479714268333374,16
15.49258209701617,-0.29428685612442296,16
15.502583763960661,-0.32444744941471043,16
15.512585430905151,-0.39729251894757944,16
15.522587097849643,-0.47267455714990725,16
15.532588764794133,-0.5298342925973907,16
15.542590431738624,-0.5605455517810928,16
15.552592098683114,-0.6055021033080755,16
15.562593765627605,-0.6647946388166613,16
15.572595432572095,-0.7107896621971863,16
15.582597099516587,-0.7413734899913175,16
15.592598766461077,-0.757030788558133,16
15.602600433405568,-0.7715899502268744,16
15.61260210035006,-0.7595176124865826,16
15.62260376729455,-0.7680754679841829,16
15.632605434239041,-0.7329482942481536,16
15.64260710118353,-0.7226761327871704,16
15.652608768128022,-0.6622658999585047,16
15.662610435072512,-0.5894605390569267,16
15.672612102017004,-0.5212499613489885,16
15.682613768961494,-0.45852591549984945,16
15.692615435905985,-0.35711622588372505,16
15.702617102850475,-0.2587455186725777,16
15.712618769794966,-0.14913838166700458,16
15.722620436739458,-0.06658954395911854,16
15.732622103683948,0.04520369946447954,16
15.74262377062844,0.16055343487855864,16
15.752625437572929,0.2608104587844457,16
15.76262710451742,0.36693470883541157,16
15.77262877146191,0.44435844744615893,16
15.782630438406402,0.527900437252285,16
15.792632105350892,0.5754531154450231,16
15.802633772295383,0.6600633040775601,16
15.812635439239873,0.689466458252167,16
15.822637106184365,0.724614500569011,16
15.832638773128856,0.7705185137706678,16
15.842640440073346,0.7775831845535826,16
15.852642107017838,0.7630264432004039,16
15.862643773962327,0.7540813007455515,16
15.872645440906819,0.7499185774316754,16
15.882647107851309,0.7290163577796902,16
15.8926487747958,0.6571883878034701,16
15.90265044174029,0.6244798643909704,16
15.912652108684782,0.5737618186969962,16
15.922653775629271,0.5128773833105404,16
15.932655442573763,0.4405762914559659,16
15.942657109518253,0.37905090729524954,16
15.952658776462744,0.3353166246102636,16
15.962660443407236,0.27288267613422434,16
15.972662110351726,0.2105990975964996,16
15.982663777296217,0.18765812033562876,16
15.992665444240707,0.14130293234987346,16
16.002667111185197,0.11584514680759535,16
16.01266877812969,0.06955060055250982,16
16.02267044507418,0.046934804012020506,16
16.03267211201867,0.028155668474403688,16
16.04267377896316,0.0166953804670072,16
16.052675445907653,-0.0008188929026076543,16
16.062677112852143,-0.010511636118355634,16
16.072678779796632,-0.013507023419938514,16
16.082680446741126,0.005927408812462903,16
16.092682113685616,-0.009655125697649893,16
16.102683780630105,0.007637361335536292,16
16.112685447574595,-0.03070591668863681,16
16.12268711451909,-0.01172018423695915,16
16.132688781463578,-0.018151305731932472,16
16.142690448408068,-0.027832987701111978,16
16.152692115352558,-0.05445563534673032,16
16.16269378229705,-0.08365763156628919,16
16.17269544924154,-0.10734812316137837,16
16.18269711618603,-0.18177977253146788,16
16.192698783130524,-0.21157618941794035,16
16.202700450075014,-0.23908449470261742,16
16.212702117019504,-0.30537482820314465,16
16.222703783963993,-0.34734598404389183,16
16.232705450908487,-0.4085016537970172,16
16.242707117852976,-0.4792542084687546,16
16.252708784797466,-0.5500967348157321,16
16.262710451741956,-0.5909632123570636,16
16.27271211868645,-0.6565055246539049,16
16.28271378563094,-0.6844296660165625,16
16.29271545257543,-0.7349345546223153,16
16.302717119519922,-0.738595859670427,16
16.312718786464412,-0.770685609611033,16
16.322720453408902,-0.7785805084027977,16
16.33272212035339,-0.77717595404686,16
16.342723787297885,-0.7561977137158452,16
16.352725454242375,-0.7260348629184383,16
16.362727121186865,-0.6814842695106315,16
16.372728788131354,-0.6206202281720424,16
16.382730455075848,-0.5436860383112033,16
16.392732122020337,-0.47847481382114193,16
16.402733788964827,-0.38001738648016214,16
16.41273545590932,-0.30323124588827943,16
16.42273712285381,-0.20282326011187204,16
16.4327387897983,-0.11070987059423532,16
16.44274045674279,-0.004201851950763273,16
16.452742123687283,0.109540682460896,16
16.462743790631773,0.22326794548058668,16
16.472745457576263,0.32526902366958355,16
16.482747124520753,0.4154209005953407,16
16.492748791465246,0.5013664934936628,16
16.502750458409736,0.5559987280874127,16
16.512752125354226,0.634990791558827,16
16.522753792298715,0.6843863502584291,16
16.53275545924321,0.7322339065598,16
16.5427571261877,0.7640802838535615,16
16.55275879313219,0.7785721126789246,16
16.56276046007668,0.7851368294138442,16
16.57276212702117,0.75910667560661,16
16.58276379396566,0.7577117889997027,16
16.59276546091015,0.7383890483796515,16
16.602767127854644,0.6762589707417738,16
16.612768794799134,0.6515339978173695,16
16.622770461743624,0.5793383744862286,16
16.632772128688114,0.5320942502158106,16
16.642773795632607,0.4753295283795245,16
16.652775462577097,0.4326407454006579,16
16.662777129521587,0.3671087258287813,16
16.67277879646608,0.3006841469193039,16
16.68278046341057,0.25231381334285874,16
16.69278213035506,0.19644713884260517,16
16.70278379729955,0.14763632395984036,16
16.712785464244043,0.13361649477263535,16
16.722787131188532,0.08612787585395328,16
16.732788798133022,0.06102076433729752,16
16.742790465077512,0.04045737635052192,16
16.752792132022005,0.02297817386786356,16
16.762793798966495,0.00026033745931017954,16
16.772795465910985,-0.019075132066882668,16
16.782797132855478,-0.005295534990672206,16
16.792798799799968,-0.011044112507879011,16
16.802800466744458,0.013932698599032817,16
16.812802133688947,-0.0054140008963961365,16
16.82280380063344,-0.0037037904060391643,16
16.83280546757793,-0.008400291626070696,16
16.84280713452242,-0.010365355081575565,16
16.85280880146691,-0.02148536202457439,16
16.862810468411404,-0.04256208824045088,16
16.872812135355893,-0.05495862711471264,16
16.882813802300383,-0.10210457441203936,16
16.892815469244876,-0.15155692415404345,16
16.902817136189366,-0.18028312870377186,16
16.912818803133856,-0.24162767001730157,16
16.922820470078346,-0.2810918008407999,16
16.93282213702284,-0.33314848210949005,16
16.94282380396733,-0.3790906246951875,16
16.95282547091182,-0.4689528312454598,16
16.96282713785631,-0.5174183236881698,16
16.972828804800802,-0.5598286852481805,16
16.98283047174529,-0.6289380900686533,16
16.99283213868978,-0.675946802882494,16
17.002833805634275,-0.6980618195962826,16
17.012835472578764,-0.7446017291944999,16
17.022837139523254,-0.7607802191560724,16
17.032838806467744,-0.7740065437963466,16
17.042840473412237,-0.7779939772610239,16
17.052842140356727,-0.7609832323208725,16
17.062843807301217,-0.7489368141798156,16
17.072845474245707,-0.7014425115514031,16
17.0828471411902,-0.6759558214468546,16
17.09284880813469,-0.6001372479964002,16
17.10285047507918,-0.5057624264476616,16
17.112852142023673,-0.44300489886968164,16
17.122853808968163,-0.354636177471924,16
17.132855475912653,-0.25099161585760354,16
17.142857142857142,-0.15357145122577123,16
17.152858809801636,-0.056564943221174876,16
17.162860476746125,0.05444720222661133,16
17.172862143690615,0.15066262809066,16
17.182863810635105,0.25266357260258115,16
17.1928654775796,0.3529392551193452,16
17.202867144524088,0.4489792460781382,16
17.212868811468578,0.5288399392700045,16
17.222870478413068,0.6044976171087366,16
17.23287214535756,0.6672144860779716,16
17.24287381230205,0.7078192328354208,16
17.25287547924654,0.735321030385017,16
17.262877146191034,0.7648610160969715,16
17.272878813135524,0.7855332403483954,16
17.282880480080014,0.7897597829848338,16
17.292882147024503,0.7704919599238138,16
17.302883813968997,0.7185230482357144,16
17.312885480913486,0.7083310524792038,16
17.322887147857976,0.6773046539987586,16
17.332888814802466,0.615237540788616,16
17.34289048174696,0.5667930944583031,16
17.35289214869145,0.5200000793820151,16
17.36289381563594,0.4543828743705225,16
17.372895482580432,0.3790374757189345,16
17.382897149524922,0.3350612948842436,16
17.392898816469412,0.2898133595956141,16
17.4029004834139,0.21012140193143744,16
17.412902150358395,0.16916090173550244,16
17.422903817302885,0.14977309159684907,16
17.432905484247375,0.08875403634391733,16
17.442907151191864,0.0770138021626538,16
17.452908818136358,0.04356224188528148,16
17.462910485080847,0.01649180099282043,16
17.472912152025337,0.024117513345422795,16
17.48291381896983,-0.0059945645713739264,16
17.49291548591432,0.012195571585490003,16
17.50291715285881,0.003185266762116965,16
17.5129188198033,0.0018608454401856278,16
17.522920486747793,0.004616765582645144,16
17.532922153692283,-0.014858376576133207,16
17.542923820636773,-0.006318690623943484,16
17.552925487581263,-0.025576182426401868,16
17.562927154525756,-0.017745523994553713,16
17.572928821470246,-0.04178971130453493,16
17.582930488414735,-0.04451126741640984,16
17.59293215535923,-0.0777260412805388,16
17.60293382230372,-0.11040782449688737,16
17.61293548924821,-0.15378783315544717,16
17.622937156192698,-0.18786728391914498,16
17.63293882313719,-0.2636638612955499,16
17.64294049008168,-0.2904372428464806,16
17.65294215702617,-0.3622245986328144,16
17.66294382397066,-0.43577328439740987,16
17.672945490915154,-0.48412567885739427,16
17.682947157859644,-0.5414452947315621,16
17.692948824804134,-0.5741918593185639,16
17.702950491748627,-0.6515561493050303,16
17.712952158693117,-0.6843336206510167,16
17.722953825637607,-0.7323513877222619,16
17.732955492582096,-0.7502488762190377,16
17.74295715952659,-0.7687713736290265,16
17.75295882647108,-0.7719242549954951,16
17.76296049341557,-0.7840966972212647,16
17.77296216036006,-0.7454789461789879,16
17.782963827304552,-0.7393822808469755,16
17.792965494249042,-0.6830496562625469,16
17.802967161193532,-0.6163487856746817,16
17.812968828138025,-0.5590301968666905,16
17.822970495082515,-0.47668546464285527,16
17.832972162027005,-0.4081596797354376,16
17.842973828971495,-0.29098851091127964,16
17.852975495915988,-0.19019884612915233,16
17.862977162860478,-0.09016087768921252,16
17.872978829804968,0.0018746773788637823,16
17.882980496749457,0.12629778906093866,16
17.89298216369395,0.21616598360613584,16
17.90298383063844,0.3190315180776225,16
17.91298549758293,0.4126034632633273,16
17.92298716452742,0.4831809255109887,16
17.932988831471913,0.5712964848456733,16
17.942990498416403,0.6300022164057832,16
17.952992165360893,0.6842719453027105,16
17.962993832305386,0.7280755954054144,16
17.972995499249876,0.7682617903857987,16
17.982997166194366,0.7708786444065668,16
17.992998833138856,0.7764728078415143,16
18.00300050008335,0.7634718962955286,16
18.01300216702784,0.7486699964638431,16
18.02300383397233,0.7250607354275816,16
18.03300550091682,0.6723350000940651,16
18.04300716786131,0.6476552419176171,16
18.0530088348058,0.5870599263655598,16
18.06301050175029,0.5152863053247682,16
18.073012168694785,0.4940060086144012,16
18.083013835639274,0.4212103459018763,16
18.093015502583764,0.36296465482220946,16
18.103017169528254,0.3100410661994276,16
18.113018836472747,0.2566196618474941,16
18.123020503417237,0.2197449920780882,16
18.133022170361727,0.15183771550358838,16
18.143023837306217,0.1077405829068647,16
18.15302550425071,0.10151349228954439,16
18.1630271711952,0.04847592177450529,16
18.17302883813969,0.01774627659970972,16
18.183030505084183,0.020072038044540393,16
18.193032172028673,-0.013511457255153632,16
18.203033838973163,0.005631233737797783,16
18.213035505917652,0.01034076565219537,16
18.223037172862146,0.005076857353863278,16
18.233038839806635,0.015536775882770781,16
18.243040506751125,-0.00046504153692676034,16
18.253042173695615,-0.025838830277407146,16
18.26304384064011,-0.011945740332069877,16
18.273045507584598,-0.01814549904157285,16
18.283047174529088,-0.020502713529006386,16
18.29304884147358,-0.031762832428755015,16
18.30305050841807,-0.07826667388737057,16
18.31305217536256,-0.12990724057760214,16
18.32305384230705,-0.14475286981007854,16
18.333055509251544,-0.18935267899109412,16
18.343057176196034,-0.22219429178869116,16
18.353058843140523,-0.2894116802643756,16
18.363060510085013,-0.325668096001828,16
18.373062177029507,-0.39638854585378297,16
18.383063843973996,-0.46596521075007435,16
18.393065510918486,-0.5156007624427644,16
18.40306717786298,-0.5617744579481743,16
18.41306884480747,-0.6139068083319515,16
18.42307051175196,-0.6820806393483586,16
18.43307217869645,-0.7226199743259412,16
18.443073845640942,-0.748297624033477,16
18.453075512585432,-0.7691575324904205,16
18.463077179529922,-0.7673982228339425,16
18.47307884647441,-0.7711257462651081,16
18.483080513418905,-0.7653711946496226,16
18.493082180363395,-0.7359266442203027,16
18.503083847307884,-0.7080255214621868,16
18.513085514252378,-0.6327577460390171,16
18.523087181196868,-0.5896980011063385,16
18.533088848141357,-0.5115364743628483,16
18.543090515085847,-0.4261307280746693,16
18.55309218203034,-0.33551567425175355,16
18.56309384897483,-0.23865646822168865,16
18.57309551591932,-0.1463032215360408,16
18.58309718286381,-0.047567385666674476,16
18.593098849808303,0.04675771875650149,16
18.603100516752793,0.1841652942884474,16
18.613102183697283,0.27046873598732124,16
18.623103850641776,0.3557348546458102,16
18.633105517586266,0.43576347083962647,16
18.643107184530756,0.5209400330790993,16
18.653108851475245,0.608342862315523,16
18.66311051841974,0.6452513486899545,16
18.67311218536423,0.7048502971272097,16
18.68311385230872,0.7520932747416054,16
18.693115519253208,0.7952684751417659,16
18.7031171861977,0.7539826578526937,16
18.71311885314219,0.7838956532175912,16
18.72312052008668,0.7634427577477421,16
18.73312218703117,0.7226799374802194,16
18.743123853975664,0.7001750138277124,16
18.753125520920154,0.6492701286590068,16
18.763127187864644,0.6053469212304312,16
18.773128854809137,0.5640707401256703,16
18.783130521753627,0.49799562714641044,16
18.793132188698117,0.44922781425565234,16
18.803133855642606,0.3837744115628767,16
18.8131355225871,0.3330684100144607,16
18.82313718953159,0.27721788819956195,16
18.83313885647608,0.22243000483864195,16
18.84314052342057,0.151198546663234,16
18.853142190365062,0.13330379258929204,16
18.863143857309552,0.09064996439871809,16
18.873145524254042,0.05659135550010378,16
18.883147191198535,0.04031666999954482,16
18.893148858143025,0.026386628612721626,16
18.903150525087515,0.018487342844677308,16
18.913152192032005,0.004476666107196903,16
18.923153858976498,0.01306018543709168,16
18.933155525920988,-0.00342450096457392,16
18.943157192865478,0.009980924959974059,16
18.953158859809967,-0.004277482139995811,16
18.96316052675446,0.00279741168116594,16
18.97316219369895,-0.011392484768180972,16
18.98316386064344,-0.010840999988937346,16
18.993165527587934,-0.03148210869352228,16
19.003167194532423,-0.04295619793308955,16
19.013168861476913,-0.04399106954508851,16
19.023170528421403,-0.08554142824173346,16
19.033172195365896,-0.09851322731427982,16
19.043173862310386,-0.16228227135741916,16
19.053175529254876,-0.20637527068592795,16
19.063177196199366,-0.2481727339616636,16
19.07317886314386,-0.30448088038280496,16
19.08318053008835,-0.38016959226953867,16
19.09318219703284,-0.42729440637958677,16
19.103183863977332,-0.48355526949406574,16
19.11318553092182,-0.5310931231665376,16
19.12318719786631,-0.6035836108735472,16
19.1331888648108,-0.6405244528186352,16
19.143190531755295,-0.6824951214139183,16
19.153192198699784,-0.7243553325536954,16
19.163193865644274,-0.7556746420774503,16
19.173195532588764,-0.7676882830375333,16
19.183197199533257,-0.7845416222456593,16
19.193198866477747,-0.7865918064006403,16
19.203200533422237,-0.7451877143075435,16
19.21320220036673,-0.7253636804675316,16
19.22320386731122,-0.6794879929840433,16
19.23320553425571,-0.6219432577856647,16
19.2432072012002,-0.5528757581538108,16
19.253208868144693,-0.47456133612808327,16
19.263210535089183,-0.3886556820556599,16
19.273212202033672,-0.30580474057118534,16
19.283213868978162,-0.1978462570450886,16
19.293215535922656,-0.0834639011443178,16
19.303217202867145,-0.005255810524984077,16
19.313218869811635,0.1038621936156032,16
19.32322053675613,0.21696539351452232,16
19.33322220370062,0.30063176712694173,16
19.343223870645108,0.4146664952417013,16
19.353225537589598,0.48985341831124407,16
19.36322720453409,0.5726233535301325,16
19.37322887147858,0.636493574477446,16
19.38323053842307,0.7035872301754623,16
19.39323220536756,0.7099511856155706,16
19.403233872312054,0.7652003887649652,16
19.413235539256544,0.7796843468530349,16
19.423237206201033,0.7868967925371286,16
19.433238873145523,0.7684550013991247,16
19.443240540090017,0.7473584482204518,16
19.453242207034506,0.7187774366702339,16
19.463243873978996,0.6908529169587846,16
19.47324554092349,0.6421508149612324,16
19.48324720786798,0.5854962512704309,16
19.49324887481247,0.529666782082939,16
19.50325054175696,0.45547514853958787,16
19.513252208701452,0.4154416125946004,16
19.523253875645942,0.3431308706946068,16
19.53325554259043,0.30696799365293714,16
19.54325720953492,0.24458310956597654,16
19.553258876479415,0.18097743279596606,16
19.563260543423905,0.16090050112913562,16
19.573262210368394,0.11675116199744903,16
19.583263877312888,0.0843138751352972,16
19.593265544257378,0.06526868905675279,16
19.603267211201867,0.046022934711080626,16
19.613268878146357,0.011039107772746698,16
19.62327054509085,0.019802177912811886,16
19.63327221203534,0.021164507230408577,16
19.64327387897983,-0.00036987153149082024,16
19.65327554592432,-0.015288991406119229,16
19.663277212868813,0.0030571455629569834,16
19.673278879813303,-0.005639680147826801,16
19.683280546757793,-0.007289404061330904,16
19.693282213702286,-0.006162329069873022,16
19.703283880646776,-0.017578022564270022,16
19.713285547591266,-0.013346209409957264,16
19.723287214535755,-0.0515877275822394,16
19.73328888148025,-0.07185520363942105,16
19.74329054842474,-0.10263892369053569,16
19.75329221536923,-0.1190035659510372,16
19.763293882313718,-0.18672233739139185,16
19.77329554925821,-0.22103376135982042,16
19.7832972162027,-0.2659697837993601,16
19.79329888314719,-0.34331087220968587,16
19.803300550091684,-0.40426894211497666,16
19.813302217036174,-0.449003972823249,16
19.823303883980664,-0.5108147409835934,16
19.833305550925154,-0.5696209411232135,16
19.843307217869647,-0.6295912311174813,16
19.853308884814137,-0.6745411723393686,16
19.863310551758627,-0.7133083699721983,16
19.873312218703116,-0.7266676595960543,16
19.88331388564761,-0.7640848867604193,16
19.8933155525921,-0.7830444523350855,16
19.90331721953659,-0.7799753387761659,16
19.913318886481083,-0.7640384201201039,16
19.923320553425572,-0.7320806666218614,16
19.933322220370062,-0.7204338535589248,16
19.943323887314552,-0.643345909321918,16
19.953325554259045,-0.6023657795667313,16
19.963327221203535,-0.5236840296291898,16
19.973328888148025,-0.4324553481958192,16
19.983330555092515,-0.34733488381213445,16
19.993332222037008,-0.23784754236254052,16
20.003333888981498,-0.15039173713751341,16
20.013335555925988,-0.027811396931234383,16
20.02333722287048,0.0779119049798107,16
20.03333888981497,0.16930216799864836,16
20.04334055675946,0.2750577551733712,16
20.05334222370395,0.3879954991238682,16
20.063343890648444,0.46506666666251767,16
20.073345557592933,0.5344426386293403,16
20.083347224537423,0.6042285631830528,16
20.093348891481913,0.6778655168731398,16
20.103350558426406,0.7130952169085042,16
20.113352225370896,0.7324814754627464,16
20.123353892315386,0.7803546120029407,16
20.133355559259876,0.791407640140855,16
20.14335722620437,0.7754330756287416,16
20.15335889314886,0.7813279816583442,16
20.16336056009335,0.7490489691370273,16
20.173362227037842,0.7004489267824549,16
20.18336389398233,0.6656190957797121,16
20.19336556092682,0.6176619855081845,16
20.20336722787131,0.5400717375506248,16
20.213368894815805,0.5010583834246828,16
20.223370561760294,0.44213229928582193,16
20.233372228704784,0.3809823702066232,16
20.243373895649274,0.3297440330586827,16
20.253375562593767,0.26918917565169237,16
20.263377229538257,0.19792924105694806,16
20.273378896482747,0.16116814916413563,16
20.28338056342724,0.1299704684490743,16
20.29338223037173,0.09300219175721416,16
20.30338389731622,0.08262116394925961,16
20.31338556426071,0.05741537901706029,16
20.323387231205203,0.03590045415875162,16
20.333388898149693,0.014789389785597816,16
20.343390565094182,-0.0019527239585970836,16
20.353392232038672,-0.0020562326284080737,16
20.363393898983166,-0.012543408463069302,16
20.373395565927655,0.02070356919307202,16
20.383397232872145,-0.00456750895546011,16
20.39339889981664,0.0022736714216182972,16
20.40340056676113,-0.013063531890024209,16
20.413402233705618,-0.016649811605696434,16
20.423403900650108,-0.037625939324534875,16
20.4334055675946,-0.024317795615838904,16
20.44340723453909,-0.056157783776393494,16
20.45340890148358,-0.08668090853121169,16
20.46341056842807,-0.13018948894529458,16
20.473412235372564,-0.14511290321632936,16
20.483413902317054,-0.20030115165497656,16
20.493415569261543,-0.2614759636782904,16
20.503417236206037,-0.3177051815856047,16
20.513418903150527,-0.3835872691833415,16
20.523420570095016,-0.4255348551347356,16
20.533422237039506,-0.4797625122073456,16
20.543423903984,-0.5578838918582562,16
20.55342557092849,-0.5944838609155508,16
20.56342723787298,-0.6604915585958476,16
20.57342890481747,-0.6910933208125118,16
20.583430571761962,-0.7405760117521377,16
20.593432238706452,-0.7792635260237049,16
20.60343390565094,-0.7553597459537125,16
20.613435572595435,-0.7728238516546326,16
20.623437239539925,-0.7778062900544874,16
20.633438906484415,-0.7461411770511517,16
20.643440573428904,-0.715121628198243,16
20.653442240373398,-0.6755687498286879,16
20.663443907317887,-0.6049066706069334,16
20.673445574262377,-0.5443425781324429,16
20.683447241206867,-0.46905364404087607,16
20.69344890815136,-0.4027929159725141,16
20.70345057509585,-0.2996761601438354,16
20.71345224204034,-0.19567921529766613,16
20.723453908984833,-0.0826735830362522,16
20.733455575929323,0.03837285144516598,16
20.743457242873813,0.12347852851345782,16
20.753458909818303,0.22210954947751804,16
20.763460576762796,0.31787341090160226,16
20.773462243707286,0.412500721206815,16
20.783463910651776,0.4847864875115214,16
20.793465577596265,0.5767363147315525,16
20.80346724454076,0.6365534640077809,16
20.81346891148525,0.6888510250699402,16
20.82347057842974,0.7216675458423777,16
20.83347224537423,0.7667414259975334,16
20.84347391231872,0.7712756443011847,16
20.85347557926321,0.7807796202078903,16
20.8634772462077,0.7796313309299318,16
20.873478913152194,0.7586887139976402,16
20.883480580096684,0.7146369843269659,16
20.893482247041174,0.696555673807296,16
20.903483913985664,0.6215832403253894,16
20.913485580930157,0.5895835164203225,16
20.923487247874647,0.5120546936805319,16
20.933488914819137,0.4695903762643503,16
20.943490581763626,0.41318487158952105,16
20.95349224870812,0.3676501173758345,16
20.96349391565261,0.274902011188858,16
20.9734955825971,0.23489865545738564,16
20.983497249541593,0.19347620137499896,16
20.993498916486082,0.14048976200607893,16
21.003500583430572,0.11198967079644277,16
21.013502250375062,0.10405134082274217,16
21.023503917319555,0.06664112678504061,16
21.033505584264045,0.0369434298396968,16
21.043507251208535,0.011583522679497832,16
21.053508918153025,0.003755060148107829,16
21.063510585097518,0.011648616664669674,16
21.073512252042008,3.776101339423156e-05,16
21.083513918986498,-0.009160611139280222,16
21.09351558593099,-0.010717513461099818,16
21.10351725287548,-0.012425926624112888,16
21.11351891981997,-0.014768458336662358,16
21.12352058676446,0.010110795013008211,16
21.133522253708954,-0.013190612648531387,16
21.143523920653443,-0.04713170701014692,16
21.153525587597933,-0.050672818032374216,16
21.163527254542423,-0.05907389596357414,16
21.173528921486916,-0.11256485429357511,16
21.183530588431406,-0.13698170430776524,16
21.193532255375896,-0.19023674998949672,16
21.20353392232039,-0.23928372860384764,16
21.21353558926488,-0.2749768620404932,16
21.22353725620937,-0.34728523245304405,16
21.23353892315386,-0.4053431147565518,16
21.243540590098352,-0.4751460475055246,16
21.25354225704284,-0.5170939041365709,16
21.26354392398733,-0.5859492481589499,16
21.27354559093182,-0.6302411892270514,16
21.283547257876315,-0.6962293853875247,16
21.293548924820804,-0.7192744940261997,16
21.303550591765294,-0.7496418938048656,16
21.313552258709787,-0.7741745342913183,16
21.323553925654277,-0.773128780737697,16
21.333555592598767,-0.7795520520578888,16
21.343557259543257,-0.7585159354522061,16
21.35355892648775,-0.753050241837131,16
21.36356059343224,-0.6822976499033436,16
21.37356226037673,-0.6441152331847236,16
21.38356392732122,-0.5941426246717709,16
21.393565594265713,-0.5207967505197691,16
21.403567261210203,-0.41920359938409113,16
21.413568928154692,-0.3585403870308502,16
21.423570595099186,-0.24292788370447158,16
21.433572262043675,-0.13439715801464316,16
21.443573928988165,-0.045778677996879215,16
21.453575595932655,0.08016334782292854,16
21.46357726287715,0.17862944233994565,16
21.473578929821638,0.27707847357446846,16
21.483580596766128,0.3700266483610947,16
21.493582263710618,0.47177912156538726,16
21.50358393065511,0.5363552975159571,16
21.5135855975996,0.6131645676732029,16
21.52358726454409,0.6545659826342602,16
21.533588931488584,0.7065985048277235,16
21.543590598433074,0.7477330259412749,16
21.553592265377564,0.7672130694936454,16
21.563593932322053,0.7705453489058577,16
21.573595599266547,0.7853114757961991,16
21.583597266211036,0.7592073866479654,16
21.593598933155526,0.7332873615717824,16
21.603600600100016,0.6905779195016726,16
21.61360226704451,0.6595838415929628,16
21.623603933989,0.6030401817421662,16
21.63360560093349,0.5586349757974982,16
21.64360726787798,0.5129234572236224,16
21.653608934822472,0.4424298931763317,16
21.663610601766962,0.37383616398128305,16
21.67361226871145,0.32899922689925665,16
21.683613935655945,0.2704151257284492,16
21.693615602600435,0.20032498030377846,16
21.703617269544925,0.16408714895704216,16
21.713618936489414,0.12288241314274542,16
21.723620603433908,0.09575084964754613,16
21.733622270378397,0.07269146398032106,16
21.743623937322887,0.04973388845232661,16
21.753625604267377,0.02355777435935152,16
21.76362727121187,0.0025326134036323805,16
21.77362893815636,-0.0004113648696066983,16
21.78363060510085,0.003664260102333809,16
21.793632272045343,0.009466917978683502,16
21.803633938989833,-0.00199910986507595,16
21.813635605934323,0.015280629465156183,16
21.823637272878813,0.004055944753371087,16
21.833638939823306,0.00507359067336062,16
21.843640606767796,-0.020194703345513935,16
21.853642273712286,-0.018128729428598743,16
21.863643940656775,-0.03962503907249556,16
21.87364560760127,-0.07145011082222787,16
21.88364727454576,-0.09941827165976118,16
21.893648941490248,-0.12478038501866763,16
21.90365060843474,-0.17239328816084928,16
21.91365227537923,-0.2006986445720115,16
21.92365394232372,-0.24984594289865258,16
21.93365560926821,-0.3033715079765589,16
21.943657276212704,-0.36244615311410006,16
21.953658943157194,-0.4267025269019809,16
21.963660610101684,-0.47703592932438693,16
21.973662277046174,-0.5504532447156338,16
21.983663943990667,-0.5998548675753054,16
21.993665610935157,-0.6445493669627129,16
22.003667277879646,-0.7024051710096675,16
22.01366894482414,-0.7266627134084409,16
22.02367061176863,-0.7731420857571254,16
22.03367227871312,-0.7638579481413409,16
22.04367394565761,-0.7669880896835626,16
22.053675612602103,-0.7804775603704368,16
22.063677279546592,-0.7506669856558336,16
22.073678946491082,-0.7043836850838864,16
22.083680613435572,-0.6705251197775219,16
22.093682280380065,-0.6138837532795218,16
22.103683947324555,-0.5551285313264991,16
22.113685614269045,-0.47483427534943307,16
22.123687281213538,-0.36323469042981954,16
22.133688948158028,-0.2914157473969168,16
22.143690615102518,-0.19067785251118996,16
22.153692282047007,-0.09856130159387823,16
22.1636939489915,0.03679216844103968,16
22.17369561593599,0.12431009496773067,16
22.18369728288048,0.2280402993550298,16
22.19369894982497,0.3347632883582346,16
22.203700616769463,0.40434693592909793,16
22.213702283713953,0.5100994326178258,16
22.223703950658443,0.5862271165189489,16
22.233705617602936,0.6320885937154415,16
22.243707284547426,0.6865511815830359,16
22.253708951491916,0.7325304355895392,16
22.263710618436406,0.7698400314923178,16
22.2737122853809,0.7661016635979719,16
22.28371395232539,0.7846723324671796,16
22.29371561926988,0.7712035519951544,16
22.30371728621437,0.7467701917543804,16
22.313718953158862,0.7143508074167472,16
22.32372062010335,0.6967735934720556,16
22.33372228704784,0.6469420233293294,16
22.34372395399233,0.5870454015012954,16
22.353725620936824,0.5092722573414321,16
22.363727287881314,0.4891479425266434,16
22.373728954825804,0.421863386320291,16
22.383730621770297,0.3468108119178066,16
22.393732288714787,0.295568122974177,16
22.403733955659277,0.22805434852034523,16
22.413735622603767,0.18127228110812768,16
22.42373728954826,0.16648674447551864,16
22.43373895649275,0.12110636386062285,16
22.44374062343724,0.07412315592265067,16
22.45374229038173,0.05067911617724829,16
22.463743957326223,0.028430255572406412,16
22.473745624270713,0.025737244434040053,16
22.483747291215202,0.023060499743823633,16
22.493748958159696,0.008380971374870424,16
22.503750625104185,0.025679293795837957,16
22.513752292048675,-0.008305090361121295,16
22.523753958993165,0.013595659279843663,16
22.53375562593766,0.008742783880067974,16
22.543757292882148,-0.0005124699150332399,16
22.553758959826638,-0.015326314687328335,16
22.563760626771128,-0.037133296835723674,16
22.57376229371562,-0.029662774184761483,16
22.58376396066011,-0.041114668786072915,16
22.5937656276046,-0.0851001557159559,16
22.603767294549094,-0.1072959263880852,16
22.613768961493584,-0.12481554705115852,16
22.623770628438074,-0.18986309679294114,16
22.633772295382563,-0.2476987477960817,16
22.643773962327057,-0.28781209670137836,16
22.653775629271546,-0.3572376910596748,16
22.663777296216036,-0.4053849552922712,16
22.673778963160526,-0.4597680931228146,16
22.68378063010502,-0.5146786466810291,16
22.69378229704951,-0.5809469396996959,16
22.703783963994,-0.6348985131984661,16
22.713785630938492,-0.6726884142234111,16
22.723787297882982,-0.7111088210669274,16
22.733788964827472,-0.7595441862603143,16
22.74379063177196,-0.7751850521464213,16
22.753792298716455,-0.7749013869150685,16
22.763793965660945,-0.7546749458905979,16
22.773795632605434,-0.7676252843881268,16
22.783797299549924,-0.7402523723180304,16
22.793798966494418,-0.6911564934270376,16
22.803800633438907,-0.645659073018944,16
22.813802300383397,-0.5875918507006319,16
22.82380396732789,-0.5073936806860646,16
22.83380563427238,-0.4203723432097951,16
22.84380730121687,-0.3369327884393677,16
22.85380896816136,-0.25107020360841303,16
22.863810635105853,-0.15098519707510646,16
22.873812302050343,-0.03245170154765704,16
22.883813968994833,0.08320311226453048,16
22.893815635939323,0.1779811482819969,16
22.903817302883816,0.29382761956035364,16
22.913818969828306,0.3873868123164482,16
22.923820636772795,0.4662031303884121,16
22.93382230371729,0.5500841692615076,16
22.94382397066178,0.6282898053293663,16
22.95382563760627,0.6482564627567461,16
22.963827304550758,0.7178487637785561,16
22.97382897149525,0.7419260408522492,16
22.98383063843974,0.7775024651359776,16
22.99383230538423,0.7772156339487961,16
23.00383397232872,0.7811630018455921,16
23.013835639273214,0.7697236013332677,16
23.023837306217704,0.7327182645741245,16
23.033838973162194,0.7006879081391659,16
23.043840640106687,0.6704568739575923,16
23.053842307051177,0.5920326725164156,16
23.063843973995667,0.559405181537642,16
23.073845640940156,0.49742370651490925,16
23.08384730788465,0.4376622970316308,16
23.09384897482914,0.3799154483968067,16
23.10385064177363,0.3042660508373414,16
23.11385230871812,0.25411358173778426,16
23.123853975662612,0.20335596459822614,16
23.133855642607102,0.15850053877732967,16
23.143857309551592,0.1196257579792137,16
23.153858976496082,0.10108561187368911,16
23.163860643440575,0.08449934710686027,16
23.173862310385065,0.07078508193652228,16
23.183863977329555,0.02208351920861068,16
23.193865644274048,0.02281504367757893,16
23.203867311218538,0.011086464720835458,16
23.213868978163028,-0.001360881822697002,16
23.223870645107517,-0.012283874077654813,16
23.23387231205201,-0.0051802204396666045,16
23.2438739789965,-0.009571358986507038,16
23.25387564594099,-0.002259115784188048,16
23.26387731288548,0.004214543045967009,16
23.273878979829973,-0.007599205457123273,16
23.283880646774463,-0.030898217311739883,16
23.293882313718953,-0.035576543581265406,16
23.303883980663446,-0.08317562563003754,16
23.313885647607936,-0.08836387949262264,16
23.323887314552426,-0.1304123103219182,16
23.333888981496916,-0.16901804792740188,16
23.34389064844141,-0.22280617910342915,16
23.3538923153859,-0.25031860548317386,16
23.36389398233039,-0.30266936488543916,16
23.37389564927488,-0.3867767776254112,16
23.38389731621937,-0.4484546343001759,16
23.39389898316386,-0.48085980018151125,16
23.40390065010835,-0.5385713813290471,16
23.413902317052845,-0.6032327573028765,16
23.423903983997334,-0.6719420152775162,16
23.433905650941824,-0.7076822428280543,16
23.443907317886314,-0.7379751716194473,16
23.453908984830807,-0.764143481193819,16
23.463910651775297,-0.7672268301741866,16
23.473912318719787,-0.7641610997085123,16
23.483913985664277,-0.77834310558207,16
23.49391565260877,-0.7570524793440084,16
23.50391731955326,-0.7012200004338561,16
23.51391898649775,-0.6858701820768707,16
23.523920653442243,-0.6047556379718759,16
23.533922320386733,-0.5356816657547278,16
23.543923987331222,-0.44885728757823506,16
23.553925654275712,-0.3808129676124333,16
23.563927321220206,-0.2739297592787351,16
23.573928988164695,-0.20434756605145304,16
23.583930655109185,-0.08306325714674455,16
23.593932322053675,0.028914431830355428,16
23.60393398899817,0.14459420027857223,16
23.613935655942658,0.23507924785424483,16
23.623937322887148,0.33076261705796184,16
23.63393898983164,0.4350955575227614,16
23.64394065677613,0.5052282146497227,16
23.65394232372062,0.5681475303320911,16
23.66394399066511,0.6649572900018034,16
23.673945657609604,0.6928990554063015,16
23.683947324554094,0.7338925520523476,16
23.693948991498583,0.7640297897469261,16
23.703950658443073,0.7659477671224814,16
23.713952325387567,0.771400403319436,16
23.723953992332056,0.7750549297898364,16
23.733955659276546,0.7357857414296749,16
23.74395732622104,0.7204293264893005,16
23.75395899316553,0.680142062201328,16
23.76396066011002,0.6316271946755975,16
23.77396232705451,0.5737547977613016,16
23.783963993999002,0.5331184224447149,16
23.793965660943492,0.46148262529791484,16
23.80396732788798,0.3874605001432987,16
23.81396899483247,0.32568764803629696,16
23.823970661776965,0.27860686515856886,16
23.833972328721455,0.2352871982698327,16
23.843973995665944,0.18969325166674939,16
23.853975662610434,0.15392274153951446,16
23.863977329554928,0.09985660925972174,16
23.873978996499417,0.06804967526029368,16
23.883980663443907,0.051028114604842786,16
23.8939823303884,0.03384412873093475,16
23.90398399733289,0.008804997854454375,16
23.91398566427738,-0.0005857410042213896,16
23.92398733122187,-0.0021458769799717276,16
23.933988998166363,-0.007827731327712077,16
23.943990665110853,0.0033616181847704917,16
23.953992332055343,-0.022021422834038316,16
23.963993998999833,-0.013728744489070258,16
23.973995665944326,0.009876605727698985,16
23.983997332888816,-0.0051888210975200915,16
23.993998999833305,-0.030797476477403333,16
24.0040006667778,-0.04190492171711081,16
24.01400233372229,-0.05836935412304312,16
24.02400400066678,-0.08290127804252437,16
24.034005667611268,-0.12233182169698342,16
24.04400733455576,-0.13682884604505505,16
24.05400900150025,-0.19279501005021704,16
24.06401066844474,-0.24915316765961848,16
24.07401233538923,-0.29490504874209533,16
24.084014002333724,-0.3624815496106026,16
24.094015669278214,-0.4309861370455084,16
24.104017336222704,-0.4619820520503959,16
24.114019003167197,-0.5099044068907621,16
24.124020670111687,-0.5746804885620241,16
24.134022337056177,-0.64083200371534,16
24.144024004000666,-0.6894188979395802,16
24.15402567094516,-0.7105449859111063,16
24.16402733788965,-0.7426219045717312,16
24.17402900483414,-0.7739261266624153,16
24.18403067177863,-0.7733669919756365,16
24.194032338723122,-0.7740021797790226,16
24.204034005667612,-0.7499387368511643,16
24.214035672612102,-0.7287319810993367,16
24.224037339556595,-0.7015437433213377,16
24.234039006501085,-0.6226936474585922,16
24.244040673445575,-0.5711966570791908,16
24.254042340390065,-0.501327074525763,16
24.264044007334558,-0.43846491901811313,16
24.274045674279048,-0.34067239900080953,16
24.284047341223538,-0.254097520973344,16
24.294049008168027,-0.12728590189998518,16
24.30405067511252,-0.017931269100658356,16
24.31405234205701,0.07930865613066412,16
24.3240540090015,0.18051102101260574,16
24.334055675945994,0.2888746332658032,16
24.344057342890483,0.37170347551081456,16
24.354059009834973,0.46464357643921406,16
24.364060676779463,0.5505574810913383,16
24.374062343723956,0.6096548069736389,16
24.384064010668446,0.6723478779333467,16
24.394065677612936,0.7087102116069044,16
24.404067344557426,0.7623076873781548,16
24.41406901150192,0.7453666885841774,16
24.42407067844641,0.7740178454949824,16
24.4340723453909,0.776132214316811,16
24.444074012335392,0.7607765003630588,16
24.45407567927988,0.720361846426633,16
24.46407734622437,0.7050228418126938,16
24.47407901316886,0.648611331617481,16
24.484080680113355,0.6129070175684355,16
24.494082347057844,0.5660524988192827,16
24.504084014002334,0.4918774927603329,16
24.514085680946824,0.44638880866208863,16
24.524087347891317,0.37343222340696675,16
24.534089014835807,0.32000711206682625,16
24.544090681780297,0.2606883263226295,16
24.554092348724787,0.21502602278179264,16
24.56409401566928,0.17839643383882237,16
24.57409568261377,0.11723662666995521,16
24.58409734955826,0.08789941080157035,16
24.594099016502753,0.04531642789045899,16
24.604100683447243,0.03202571642447204,16
24.614102350391732,0.01964147550956505,16
24.624104017336222,0.012705658862258303,16
24.634105684280716,-0.016289892876807145,16
24.644107351225205,-0.005133307687134582,16
24.654109018169695,0.004822803192559676,16
24.664110685114185,-0.01745128092801895,16
24.67411235205868,0.004518233407286212,16
24.684114019003168,0.0011719782110317274,16
24.694115685947658,-0.008858015040228678,16
24.70411735289215,0.01772193497301124,16
24.71411901983664,-0.034927521793348404,16
24.72412068678113,-0.04239481957969651,16
24.73412235372562,-0.04664693943617468,16
24.744124020670114,-0.08848574234125399,16
24.754125687614604,-0.13182380984756417,16
24.764127354559093,-0.17782229520812431,16
24.774129021503583,-0.21401078018444883,16
24.784130688448077,-0.2594889991810945,16
24.794132355392566,-0.3148629577558643,16
24.804134022337056,-0.3666212708101706,16
24.81413568928155,-0.43962499332595356,16
24.82413735622604,-0.5117764573337836,16
24.83413902317053,-0.5498588781010796,16
24.84414069011502,-0.6019499559215665,16
24.854142357059512,-0.6688507748232495,16
24.864144024004002,-0.692161369621866,16
24.87414569094849,-0.751264716889473,16
24.88414735789298,-0.7512788138087124,16
24.894149024837475,-0.7520968583389318,16
24.904150691781965,-0.7744313504314622,16
24.914152358726454,-0.7775846856925486,16
24.924154025670948,-0.7360986160167459,16
24.934155692615438,-0.7216844471185438,16
24.944157359559927,-0.6595950322292898,16
24.954159026504417,-0.6204479269166658,16
24.96416069344891,-0.54200573583862,16
24.9741623603934,-0.4591434410342092,16
24.98416402733789,-0.35405639525226523,16
24.99416569428238,-0.2777287332141328,16
25.004167361226873,-0.18205200026977908,16
25.014169028171363,-0.08194133214688062,16
25.024170695115853,0.02446745619048554,16
25.034172362060346,0.12006233047233181,16
25.044174029004836,0.24352756457376049,16
25.054175695949326,0.3303561276335228,16
25.064177362893815,0.4170707343929047,16
25.07417902983831,0.5112907844705267,16
25.0841806967828,0.5840286237124084,16
25.09418236372729,0.6444445124963284,16
25.104184030671778,0.7011768718038671,16
25.11418569761627,0.7536077437287392,16
25.12418736456076,0.7544101440183789,16
25.13418903150525,0.7636948339868528,16
25.144190698449744,0.7749241968280539,16
25.154192365394234,0.7686600395617452,16
25.164194032338724,0.7354989955123886,16
25.174195699283214,0.717693583156444,16
25.184197366227707,0.6620782559177214,16
25.194199033172197,0.6156532369129311,16
25.204200700116687,0.5827186458865643,16
25.214202367061176,0.5342818512327284,16
25.22420403400567,0.4647954180111351,16
25.23420570095016,0.3912112687924106,16
25.24420736789465,0.354489544483401,16
25.25420903483914,0.29282010968131955,16
25.264210701783632,0.21539880417853932,16
25.274212368728122,0.18976880986824923,16
25.284214035672612,0.1431287389411877,16
25.294215702617105,0.1137360660558775,16
25.304217369561595,0.08433817590674146,16
25.314219036506085,0.038177626912381225,16
25.324220703450575,0.03444292853916819,16
25.334222370395068,0.01876568321798585,16
25.344224037339558,0.011207398742395487,16
25.354225704284048,0.004033283116539488,16
25.364227371228537,-0.0034553718525882652,16
25.37422903817303,0.0015795168274704851,16
25.38423070511752,0.0038076314071261333,16
25.39423237206201,-0.003659631913012241,16
25.404234039006504,0.007726395397082114,16
25.414235705950993,-0.007202350040824879,16
25.424237372895483,-0.03997759180067134,16
25.434239039839973,-0.025546839869863697,16
25.444240706784466,-0.062496207025491315,16
25.454242373728956,-0.08454267350505541,16
25.464244040673446,-0.10761214993259158,16
25.474245707617936,-0.1297975875138408,16
25.48424737456243,-0.20765352435579226,16
25.49424904150692,-0.24292272414307542,16
25.50425070845141,-0.2815736845124604,16
25.514252375395902,-0.3350273347666292,16
25.52425404234039,-0.4069733682490218,16
25.53425570928488,-0.45313289103689897,16
25.54425737622937,-0.5195654570578881,16
25.554259043173865,-0.5793282039576776,16
25.564260710118354,-0.6404557176464567,16
25.574262377062844,-0.6694698136535904,16
25.584264044007334,-0.7131751036994464,16
25.594265710951827,-0.7513270158903528,16
25.604267377896317,-0.7666370347111043,16
25.614269044840807,-0.7844563263264565,16
25.6242707117853,-0.7776842264880127,16
25.63427237872979,-0.749240309516344,16
25.64427404567428,-0.736190630369193,16
25.65427571261877,-0.687615548620917,16
25.664277379563263,-0.62946572399804,16
25.674279046507753,-0.5743605996897604,16
25.684280713452242,-0.4806546424423087,16
25.694282380396732,-0.40892937214131025,16
25.704284047341226,-0.33162845144725617,16
25.714285714285715,-0.22032338876276988,16
25.724287381230205,-0.12657738675818148,16
25.7342890481747,-0.022978566644360425,16
25.744290715119188,0.07357886542133144,16
25.754292382063678,0.1888750085895726,16
25.764294049008168,0.2843422869037773,16
25.77429571595266,0.38921121946631415,16
25.78429738289715,0.46421724806246073,16
25.79429904984164,0.5418368907630067,16
25.80430071678613,0.6151842187945508,16
25.814302383730624,0.6775380054346334,16
25.824304050675114,0.7236437105024455,16
25.834305717619603,0.7556728039460869,16
25.844307384564097,0.7871550995113787,16
25.854309051508586,0.7711134617937012,16
25.864310718453076,0.7662306350296372,16
25.874312385397566,0.7554130949208081,16
25.88431405234206,0.7346097096191239,16
25.89431571928655,0.7137972010493497,16
25.90431738623104,0.6354041093458793,16
25.91431905317553,0.5987962299773167,16
25.924320720120022,0.5486325763852337,16
25.934322387064512,0.4685623100594698,16
25.944324054009,0.442003175510807,16
25.954325720953495,0.3991470607708953,16
25.964327387897985,0.3213413518504744,16
25.974329054842475,0.2530327897240325,16
25.984330721786964,0.21688242009943115,16
25.994332388731458,0.17433512284492042,16
26.004334055675947,0.11127175376907342,16
26.014335722620437,0.08953739375377996,16
26.024337389564927,0.05334051651995933,16
26.03433905650942,0.049710283868471844,16
26.04434072345391,0.03222288252678091,16
26.0543423903984,0.004478907331934803,16
26.06434405734289,0.006235065269105749,16
26.074345724287383,0.00930353992108857,16
26.084347391231873,-0.004882887184679214,16
26.094349058176363,0.003402998904830652,16
26.104350725120856,0.014932693765476832,16
26.114352392065346,0.008068352556414835,16
26.124354059009836,-0.009530759919783981,16
26.134355725954325,0.004102196486660072,16
26.14435739289882,-0.0175342671549078,16
26.15435905984331,-0.024430591741974494,16
26.1643607267878,-0.04316665586632543,16
26.174362393732288,-0.09533595283883618,16
26.18436406067678,-0.1325822772705327,16
26.19436572762127,-0.16668926794321617,16
26.20436739456576,-0.2217203954349134,16
26.214369061510254,-0.2904632707763328,16
26.224370728454744,-0.32695375399781146,16
26.234372395399234,-0.37689082317185574,16
26.244374062343724,-0.4428286367885501,16
26.254375729288217,-0.5040411209870299,16
26.264377396232707,-0.5599243059248528,16
26.274379063177197,-0.6026415574478747,16
26.284380730121686,-0.6922580257591706,16
26.29438239706618,-0.7058233889210259,16
26.30438406401067,-0.7596631158735743,16
26.31438573095516,-0.7524999501335631,16
26.324387397899653,-0.7637530604568401,16
26.334389064844142,-0.753147288203033,16
26.344390731788632,-0.7715866546036588,16
26.354392398733122,-0.7489843172118699,16
26.364394065677615,-0.7085346395765033,16
26.374395732622105,-0.6699819565084328,16
26.384397399566595,-0.6398329937575403,16
26.394399066511085,-0.5291428230621941,16
26.404400733455578,-0.47534768779912945,16
26.414402400400068,-0.36984982037473274,16
26.424404067344557,-0.269206162716949,16
26.43440573428905,-0.18974714630110717,16
26.44440740123354,-0.08525183488464375,16
26.45440906817803,0.035244469917123517,16
26.46441073512252,0.16789426697483256,16
26.474412402067014,0.2487310668439298,16
26.484414069011503,0.3348214191574258,16
26.494415735955993,0.43373776705047645,16
26.504417402900483,0.521184087192083,16
26.514419069844976,0.5870655748353409,16
26.524420736789466,0.6451513693618894,16
26.534422403733956,0.7057459508681093,16
26.54442407067845,0.7445693510887598,16
26.55442573762294,0.7681565965369409,16
26.56442740456743,0.7721092393947955,16
26.57442907151192,0.7434774099498968,16
26.584430738456412,0.7473863769071087,16
26.5944324054009,0.761193587438045,16
26.60443407234539,0.706528554909747,16
26.61443573928988,0.6806212853424717,16
26.624437406234374,0.6261510663072067,16
26.634439073178864,0.5683046242576502,16
26.644440740123354,0.515739954297226,16
26.654442407067847,0.47162609190108573,16
26.664444074012337,0.40160471816153714,16
26.674445740956827,0.3417962318656241,16
26.684447407901317,0.2795881644133995,16
26.69444907484581,0.22628787562671662,16
26.7044507417903,0.18714479650554244,16
26.71445240873479,0.13851898266266377,16
26.72445407567928,0.11009686232073816,16
26.734455742623773,0.09288471194697838,16
26.744457409568263,0.05682654249813932,16
26.754459076512752,0.03680022159608545,16
26.764460743457242,0.023381076872200292,16
26.774462410401735,-0.007419249619860619,16
26.784464077346225,-0.0024412115014785275,16
26.794465744290715,-0.008016139661167918,16
26.80446741123521,-0.0009040032686024601,16
26.814469078179698,-0.004912181067771178,16
26.824470745124188,0.005910097944676836,16
26.834472412068678,0.014960379929239213,16
26.84447407901317,0.0048222600510202385,16
26.85447574595766,-0.019589357116101123,16
26.86447741290215,-0.028252255696492683,16
26.87447907984664,-0.04155923383003267,16
26.884480746791134,-0.0750499753500483,16
26.894482413735624,-0.11971029390521935,16
26.904484080680113,-0.1497263432999472,16
26.914485747624607,-0.18176085425139962,16
26.924487414569096,-0.24551504883195954,16
26.934489081513586,-0.3026131065634147,16
26.944490748458076,-0.37573509628980445,16
26.95449241540257,-0.4103800112172242,16
26.96449408234706,-0.4850500075451353,16
26.97449574929155,-0.5443866485622008,16
26.98449741623604,-0.5908443007665304,16
26.994499083180532,-0.6360554660125248,16
27.004500750125022,-0.6909468067411204,16
27.01450241706951,-0.7343938430795198,16
27.024504084014005,-0.7604661934240206,16
27.034505750958495,-0.7566434423588804,16
27.044507417902985,-0.7942177376466552,16
27.054509084847474,-0.7645868503823078,16
27.064510751791968,-0.7666966750547485,16
27.074512418736457,-0.725059849496327,16
27.084514085680947,-0.7066312840569041,16
27.094515752625437,-0.6353613669724739,16
27.10451741956993,-0.5663347722091842,16
27.11451908651442,-0.4947208730208049,16
27.12452075345891,-0.4326260921372634,16
27.134522420403403,-0.318720519268864,16
27.144524087347893,-0.230728414238831,16
27.154525754292383,-0.12534441287443693,16
27.164527421236873,-0.008552207496314895,16
27.174529088181366,0.09387096939889346,16
27.184530755125856,0.21195930470963895,16
27.194532422070345,0.30575822457490726,16
27.204534089014835,0.3816385557296649,16
27.21453575595933,0.47823796341070357,16
27.22453742290382,0.5548836140276228,16
27.234539089848308,0.6328723500683998,16
27.2445407567928,0.6756941033351833,16
27.25454242373729,0.7135273425004941,16
27.26454409068178,0.7677125495754955,16
27.27454575762627,0.7780067244302127,16
27.284547424570764,0.7881506986719732,16
27.294549091515254,0.7651626655148567,16
27.304550758459744,0.7577403437213369,16
27.314552425404234,0.722904585257429,16
27.324554092348727,0.6881168361289939,16
27.334555759293217,0.6406243349710691,16
27.344557426237706,0.6037547677987756,16
27.3545590931822,0.5533898264765351,16
27.36456076012669,0.4982567857904719,16
27.37456242707118,0.40509825375589825,16
27.38456409401567,0.36500084504387653,16
27.394565760960162,0.30724894470172426,16
27.404567427904652,0.2547607753787325,16
27.414569094849142,0.21501794837197422,16
27.424570761793632,0.1547061207950841,16
27.434572428738125,0.11575647800379163,16
27.444574095682615,0.08115027047704723,16
27.454575762627105,0.05407217584146422,16
27.464577429571595,0.05037938432177494,16
27.474579096516088,0.0194839936948746,16
27.484580763460578,0.019454461129270628,16
27.494582430405067,0.012701847583842758,16
27.50458409734956,-0.004414313563348359,16
27.51458576429405,-0.022748850694849585,16
27.52458743123854,0.009933407102621724,16
27.53458909818303,-0.002847677998896029,16
27.544590765127523,-0.019899824111193353,16
27.554592432072013,-0.00529352254488522,16
27.564594099016503,-0.01821455855585467,16
27.574595765960993,-0.03799784688536533,16
27.584597432905486,-0.04611766694064252,16
27.594599099849976,-0.0617313377044513,16
27.604600766794466,-0.09736727301332838,16
27.61460243373896,-0.12191114070510559,16
27.62460410068345,-0.17744119918175325,16
27.63460576762794,-0.22156438592218,16
27.64460743457243,-0.2798238766671948,16
27.65460910151692,-0.33791731639138134,16
27.66461076846141,-0.3979881147357066,16
27.6746124354059,-0.4553338086524549,16
27.68461410235039,-0.5094933042028119,16
27.694615769294884,-0.5710729515424523,16
27.704617436239374,-0.6173036412698772,16
27.714619103183864,-0.6544695652228156,16
27.724620770128357,-0.7019320723138271,16
27.734622437072847,-0.7315812842109258,16
27.744624104017337,-0.7641206506275912,16
27.754625770961827,-0.7669090621889925,16
27.76462743790632,-0.7754505421100139,16
27.77462910485081,-0.7770814650786387,16
27.7846307717953,-0.7371203936960486,16
27.79463243873979,-0.7001869232433131,16
27.804634105684283,-0.6738798611661913,16
27.814635772628773,-0.599843309822239,16
27.824637439573262,-0.5324879718877631,16
27.834639106517756,-0.46398612112697846,16
27.844640773462245,-0.35752784851952996,16
27.854642440406735,-0.26784329400357937,16
27.864644107351225,-0.1690937838943673,16
27.87464577429572,-0.05599870335213853,16
27.884647441240208,0.05006064545126685,16
27.894649108184698,0.1365256953398068,16
27.904650775129188,0.25524126650875667,16
27.91465244207368,0.3292968837895217,16
27.92465410901817,0.41555328098288435,16
27.93465577596266,0.5293190985171504,16
27.944657442907154,0.5949902455745351,16
27.954659109851644,0.6643275036286705,16
27.964660776796133,0.703461634927056,16
27.974662443740623,0.7406495670507567,16
27.984664110685117,0.7549006046359046,16
27.994665777629606,0.7570777503642532,16
28.004667444574096,0.781307602502273,16
28.014669111518586,0.7555704926506935,16
28.02467077846308,0.7307683916169964,16
28.03467244540757,0.7035649172236624,16
28.04467411235206,0.680093456186908,16
28.054675779296552,0.6199785264611268,16
28.064677446241042,0.5697773812899957,16
28.07467911318553,0.5313485761489295,16
28.08468078013002,0.4668963264911625,16
28.094682447074515,0.3927219892112341,16
28.104684114019005,0.3402116588479549,16
28.114685780963494,0.2797194529565485,16
28.124687447907984,0.24798040712397618,16
28.134689114852478,0.1790259890643356,16
28.144690781796967,0.13833673239225186,16
28.154692448741457,0.11236171305385778,16
28.164694115685947,0.06776549200283477,16
28.17469578263044,0.04841999930738656,16
28.18469744957493,0.027523010678321413,16
