time,ppg_signal,subject_id
0.0,0.0015683793897368207,7
0.010001666944490749,0.07363157894416314,7
0.020003333888981498,0.17246728137066303,7
0.030005000833472247,0.24283825803583756,7
0.040006667777962995,0.3168451021963014,7
0.050008334722453744,0.4006423368165398,7
0.06001000166694449,0.4673830132989603,7
0.07001166861143523,0.5303910564366735,7
0.08001333555592599,0.5773321596970898,7
0.09001500250041675,0.6235819347934014,7
0.10001666944490749,0.6888931143894772,7
0.11001833638939823,0.7113178657526336,7
0.12002000333388899,0.7517808405168824,7
0.13002167027837974,0.756929172037206,7
0.14002333722287047,0.7763129410891212,7
0.15002500416736123,0.8018662545598034,7
0.16002667111185198,0.7873625864440682,7
0.17002833805634274,0.7691948766295857,7
0.1800300050008335,0.7471931635666013,7
0.19003167194532422,0.7194203933962117,7
0.20003333888981498,0.7188944060299881,7
0.21003500583430573,0.6662029314215887,7
0.22003667277879646,0.6268174962204613,7
0.23003833972328722,0.570099028275997,7
0.24004000666777797,0.5270820839259097,7
0.2500416736122687,0.5019623127621966,7
0.2600433405567595,0.4541639945146886,7
0.2700450075012502,0.4031945860851408,7
0.28004667444574094,0.35430789280506897,7
0.2900483413902317,0.30009357460235775,7
0.30005000833472245,0.27809201322525207,7
0.31005167527921323,0.22167365137727837,7
0.32005334222370396,0.17507807995976082,7
0.3300550091681947,0.15173136260603726,7
0.3400566761126855,0.1128323629451148,7
0.3500583430571762,0.11427628936247128,7
0.360060010001667,0.07572581226514813,7
0.3700616769461577,0.0420546522952257,7
0.38006334389064844,0.038851333680533624,7
0.3900650108351392,0.028666943590341436,7
0.40006667777962995,0.012270166165111517,7
0.4100683447241207,0.0156292259664906,7
0.42007001166861146,-0.01441794836186807,7
0.4300716786131022,0.014050668538847434,7
0.4400733455575929,-0.0010960846530137574,7
0.4500750125020837,-0.004708336704798843,7
0.46007667944657443,-0.019190826700638628,7
0.4700783463910652,0.007041438322248564,7
0.48008001333555594,0.004455934850326664,7
0.49008168028004667,-0.005920657194646892,7
0.5000833472245374,-0.024339408666673282,7
0.5100850141690282,-0.035307421562753294,7
0.520086681113519,-0.016221736492468823,7
0.5300883480580096,-0.038956698851314135,7
0.5400900150025004,-0.061521058146130514,7
0.5500916819469912,-0.08631284105368096,7
0.5600933488914819,-0.10040294828341902,7
0.5700950158359727,-0.14139435076666101,7
0.5800966827804634,-0.18040401649013615,7
0.5900983497249542,-0.21157150088361432,7
0.6001000166694449,-0.2542722867081317,7
0.6101016836139357,-0.3010427449032355,7
0.6201033505584265,-0.3272665127106639,7
0.6301050175029171,-0.379811860492359,7
0.6401066844474079,-0.4355757712169273,7
0.6501083513918987,-0.47620565279362026,7
0.6601100183363894,-0.5236796200445768,7
0.6701116852808802,-0.5546921137703672,7
0.680113352225371,-0.6095014780878502,7
0.6901150191698616,-0.6384026520547584,7
0.7001166861143524,-0.6758372284383182,7
0.7101183530588432,-0.7216683319122273,7
0.720120020003334,-0.7318471311167574,7
0.7301216869478246,-0.7697083873137838,7
0.7401233538923154,-0.7663821610219425,7
0.7501250208368062,-0.7670601835431939,7
0.7601266877812969,-0.7649352871879287,7
0.7701283547257877,-0.7779320700233893,7
0.7801300216702785,-0.7550615879939492,7
0.7901316886147691,-0.7408106348535963,7
0.8001333555592599,-0.6903841151295776,7
0.8101350225037507,-0.6689343045023625,7
0.8201366894482414,-0.6092335061893189,7
0.8301383563927321,-0.5484821138321032,7
0.8401400233372229,-0.49230734095844275,7
0.8501416902817136,-0.4279128548284257,7
0.8601433572262044,-0.35062065913595825,7
0.8701450241706952,-0.2793721563569422,7
0.8801466911151858,-0.21657748098558788,7
0.8901483580596766,-0.12063581425582047,7
0.9001500250041674,-0.03906386370288684,7
0.9101516919486582,0.06250279369203986,7
0.9201533588931489,0.1226745754582815,7
0.9301550258376396,0.2089266649797002,7
0.9401566927821304,0.28805100692725716,7
0.9501583597266211,0.3765506403864299,7
0.9601600266711119,0.4412542452515048,7
0.9701616936156027,0.5210876532863261,7
0.9801633605600933,0.5614391243514277,7
0.9901650275045841,0.607380389184524,7
1.0001666944490748,0.6638959757773387,7
1.0101683613935657,0.6982877881189897,7
1.0201700283380564,0.729132297793811,7
1.030171695282547,0.7628658242330959,7
1.040173362227038,0.7814329919320825,7
1.0501750291715286,0.7798006702362071,7
1.0601766961160193,0.773382403012709,7
1.0701783630605102,0.775823847720714,7
1.0801800300050008,0.746938019549036,7
1.0901816969494915,0.7359881451937835,7
1.1001833638939824,0.7064857440716845,7
1.110185030838473,0.6741950899565917,7
1.1201866977829638,0.6372070388630864,7
1.1301883647274547,0.6154735726224518,7
1.1401900316719453,0.5596126526591754,7
1.1501916986164362,0.5200718946689754,7
1.160193365560927,0.47461399532095155,7
1.1701950325054176,0.41095255558392185,7
1.1801966994499085,0.3725949943968973,7
1.1901983663943991,0.3472969206581125,7
1.2002000333388898,0.2838225128485874,7
1.2102017002833807,0.2457580389765493,7
1.2202033672278714,0.22225205440486157,7
1.230205034172362,0.18109797360816543,7
1.240206701116853,0.11805778837506381,7
1.2502083680613436,0.0922885128279796,7
1.2602100350058343,0.08277996845250295,7
1.2702117019503252,0.07185514140497298,7
1.2802133688948159,0.047838667673239764,7
1.2902150358393065,0.028493410602230124,7
1.3002167027837974,0.03723081660813382,7
1.310218369728288,0.010072084523244755,7
1.3202200366727788,0.01391499036270249,7
1.3302217036172697,0.007278081675909717,7
1.3402233705617603,-0.003657934836279994,7
1.350225037506251,0.008477230535009136,7
1.360226704450742,0.004382643766611819,7
1.3702283713952326,-0.01152496222581134,7
1.3802300383397232,-0.0016273085769651923,7
1.3902317052842141,0.01412052629180243,7
1.4002333722287048,-0.016694841543116755,7
1.4102350391731955,-0.009606706873719315,7
1.4202367061176864,-0.02559339449654786,7
1.430238373062177,-0.04415204159862184,7
1.440240040006668,-0.05954170420785368,7
1.4502417069511586,-0.0797048630725383,7
1.4602433738956493,-0.09445616487002484,7
1.4702450408401402,-0.1272258163139612,7
1.4802467077846309,-0.16587977562156817,7
1.4902483747291215,-0.19973906972616823,7
1.5002500416736124,-0.21857280305176988,7
1.510251708618103,-0.26255310740046983,7
1.5202533755625938,-0.3048693607305825,7
1.5302550425070847,-0.3790165992948799,7
1.5402567094515753,-0.4294174087008331,7
1.550258376396066,-0.4529387159963824,7
1.560260043340557,-0.5016049664754568,7
1.5702617102850476,-0.5561373333119192,7
1.5802633772295382,-0.5771428434384871,7
1.5902650441740291,-0.6298875424000406,7
1.6002667111185198,-0.6648497843408152,7
1.6102683780630105,-0.71154528193473,7
1.6202700450075014,-0.7259332923391486,7
1.630271711951992,-0.7289739106145078,7
1.6402733788964827,-0.7668946339204644,7
1.6502750458409736,-0.7698356613262649,7
1.6602767127854643,-0.7662691352057494,7
1.670278379729955,-0.771608110922264,7
1.6802800466744459,-0.7757590465818521,7
1.6902817136189365,-0.7375296653926704,7
1.7002833805634272,-0.709898534369717,7
1.710285047507918,-0.6554269848891896,7
1.7202867144524088,-0.6155385375035882,7
1.7302883813968994,-0.577015666625379,7
1.7402900483413903,-0.5091433839938343,7
1.750291715285881,-0.4613103280103854,7
1.7602933822303717,-0.39143849422771754,7
1.7702950491748626,-0.2981030194501589,7
1.7802967161193533,-0.2508830400238147,7
1.7902983830638441,-0.1471586953420345,7
1.8003000500083348,-0.06544675907083124,7
1.8103017169528255,0.011597089634623846,7
1.8203033838973164,0.10861816564811964,7
1.830305050841807,0.1803299888912408,7
1.8403067177862977,0.2601663131368787,7
1.8503083847307886,0.34048941513059566,7
1.8603100516752793,0.4130238337325376,7
1.87031171861977,0.4798888911154948,7
1.8803133855642609,0.5285216530752949,7
1.8903150525087515,0.5821881572038775,7
1.9003167194532422,0.6428783104270371,7
1.910318386397733,0.6834644973728341,7
1.9203200533422238,0.7039303095367246,7
1.9303217202867144,0.7460068903835935,7
1.9403233872312053,0.7648758311522128,7
1.950325054175696,0.7961602266106115,7
1.9603267211201867,0.7892477108684082,7
1.9703283880646776,0.7855368519741701,7
1.9803300550091683,0.7650128436230277,7
1.990331721953659,0.7455148417320651,7
2.0003333888981496,0.7416213414204735,7
2.0103350558426407,0.697239782352185,7
2.0203367227871314,0.6509603258404457,7
2.030338389731622,0.6263520453815821,7
2.0403400566761127,0.5826665292700436,7
2.0503417236206034,0.5510508616638464,7
2.060343390565094,0.5075077684770173,7
2.070345057509585,0.42182725323296344,7
2.080346724454076,0.3918584904911232,7
2.0903483913985665,0.33697967773927745,7
2.100350058343057,0.305197833647436,7
2.110351725287548,0.25277664684599993,7
2.1203533922320386,0.22457792836112386,7
2.1303550591765297,0.16812086132333287,7
2.1403567261210203,0.1518452389666659,7
2.150358393065511,0.11365357949585277,7
2.1603600600100017,0.08204433965843788,7
2.1703617269544924,0.07564929119104373,7
2.180363393898983,0.04620383842523439,7
2.190365060843474,0.019347105358404205,7
2.200366727787965,0.024555278102299072,7
2.2103683947324555,-0.00453397402751032,7
2.220370061676946,-0.001248372379393908,7
2.230371728621437,-0.0035372889658433805,7
2.2403733955659275,0.01655928144932233,7
2.2503750625104186,0.014571937451900559,7
2.2603767294549093,-0.010988143999487167,7
2.2703783963994,-0.0029734741463674076,7
2.2803800633438907,-0.007570470642703843,7
2.2903817302883813,-0.016652447576143595,7
2.3003833972328724,-0.0014686302611871312,7
2.310385064177363,-0.017105462477132006,7
2.320386731121854,-0.03070431596942999,7
2.3303883980663445,-0.0226272728614799,7
2.340390065010835,-0.030104946444044687,7
2.350391731955326,-0.07576528748036357,7
2.360393398899817,-0.07294983936697194,7
2.3703950658443076,-0.1153903983790457,7
2.3803967327887983,-0.14537434989616593,7
2.390398399733289,-0.1753877806698727,7
2.4004000666777796,-0.2186317189660267,7
2.4104017336222703,-0.2757037214624571,7
2.4204034005667614,-0.2890911476294683,7
2.430405067511252,-0.3518374319113987,7
2.4404067344557427,-0.37097071362024664,7
2.4504084014002334,-0.44639074056139155,7
2.460410068344724,-0.4751440729458075,7
2.4704117352892148,-0.5199229909036478,7
2.480413402233706,-0.5689474025617558,7
2.4904150691781965,-0.609574305608706,7
2.5004167361226872,-0.6431253278828499,7
2.510418403067178,-0.6948778813151514,7
2.5204200700116686,-0.7268978736936346,7
2.5304217369561592,-0.7453637832358108,7
2.5404234039006504,-0.7493894985127076,7
2.550425070845141,-0.7669780075491194,7
2.5604267377896317,-0.7875950558679536,7
2.5704284047341224,-0.7866064180493582,7
2.580430071678613,-0.771737777905107,7
2.590431738623104,-0.7367895995229721,7
2.600433405567595,-0.7247786183584973,7
2.6104350725120855,-0.6740468401678457,7
2.620436739456576,-0.6410659905193071,7
2.630438406401067,-0.5906632582856141,7
2.6404400733455575,-0.5339576067563816,7
2.6504417402900486,-0.49732180969422407,7
2.6604434072345393,-0.42000260484587576,7
2.67044507417903,-0.3582859311503695,7
2.6804467411235207,-0.2641964812224063,7
2.6904484080680113,-0.17248940393888917,7
2.700450075012502,-0.11921606359507156,7
2.710451741956993,-0.032158118128972756,7
2.720453408901484,0.03341208570389059,7
2.7304550758459745,0.13472412204046036,7
2.740456742790465,0.2406870398543018,7
2.750458409734956,0.3030749791149483,7
2.7604600766794465,0.3738888900227123,7
2.7704617436239376,0.4421740306902851,7
2.7804634105684283,0.5241496137433904,7
2.790465077512919,0.5787009524087842,7
2.8004667444574096,0.6320609564789885,7
2.8104684114019003,0.6640050034528444,7
2.820470078346391,0.7183831039673938,7
2.830471745290882,0.7533329670263982,7
2.8404734122353728,0.7685977558034714,7
2.8504750791798634,0.7751471229990555,7
2.860476746124354,0.7704177735857216,7
2.8704784130688448,0.7826879679034706,7
2.880480080013336,0.7624995384082408,7
2.8904817469578266,0.749195395492324,7
2.9004834139023172,0.7501672330225638,7
2.910485080846808,0.7083679573616221,7
2.9204867477912986,0.6776724877106785,7
2.9304884147357892,0.6269568918558704,7
2.9404900816802804,0.59968439630534,7
2.950491748624771,0.5535648614426023,7
2.9604934155692617,0.51699638829459,7
2.9704950825137524,0.4760164906664041,7
2.980496749458243,0.412036712909251,7
2.9904984164027337,0.3639438696339146,7
3.000500083347225,0.32761341298562285,7
3.0105017502917155,0.28181719835051633,7
3.020503417236206,0.23771849212242302,7
3.030505084180697,0.221113793725856,7
3.0405067511251875,0.17233469891187864,7
3.050508418069678,0.12960745228738538,7
3.0605100850141693,0.09460042539998717,7
3.07051175195866,0.06395249334787378,7
3.0805134189031507,0.054939031024851724,7
3.0905150858476413,0.04641564814048682,7
3.100516752792132,0.04294769001047212,7
3.1105184197366227,0.010034104668393447,7
3.120520086681114,0.012658296976899915,7
3.1305217536256045,-0.004881233327810869,7
3.140523420570095,0.0018335554020110028,7
3.150525087514586,-7.476984372691616e-06,7
3.1605267544590765,0.005218935193415798,7
3.170528421403567,-0.01101052205796508,7
3.1805300883480583,-0.01423417448247895,7
3.190531755292549,0.008736506944385023,7
3.2005334222370396,-0.012249190115096856,7
3.2105350891815303,-0.01640203741687277,7
3.220536756126021,-0.021625524893166555,7
3.230538423070512,-0.0152047085358935,7
3.2405400900150028,-0.034690148593266135,7
3.2505417569594934,-0.06238861252222523,7
3.260543423903984,-0.07674580214350259,7
3.270545090848475,-0.11297859157777704,7
3.2805467577929655,-0.14463670687081784,7
3.2905484247374566,-0.16919474640928187,7
3.3005500916819472,-0.20071911427472755,7
3.310551758626438,-0.24673335317927134,7
3.3205534255709286,-0.2713762193630881,7
3.3305550925154193,-0.300901656817517,7
3.34055675945991,-0.3737751613152038,7
3.350558426404401,-0.4239693245515646,7
3.3605600933488917,-0.4674845035717234,7
3.3705617602933824,-0.4986226616553549,7
3.380563427237873,-0.5382590124002053,7
3.3905650941823637,-0.5970361133030573,7
3.4005667611268544,-0.6265706158843067,7
3.4105684280713455,-0.6798117724322039,7
3.420570095015836,-0.7138735367095862,7
3.430571761960327,-0.7647639946000038,7
3.4405734289048175,-0.7452281507022432,7
3.450575095849308,-0.7602384872231522,7
3.460576762793799,-0.7770165302361193,7
3.47057842973829,-0.8020605297430762,7
3.4805800966827807,-0.7712468483899539,7
3.4905817636272714,-0.7544558116788747,7
3.500583430571762,-0.744845813099901,7
3.5105850975162527,-0.7121107823663013,7
3.5205867644607434,-0.6748416281807273,7
3.5305884314052345,-0.6331566712885394,7
3.540590098349725,-0.5588864819113634,7
3.550591765294216,-0.5241790092321523,7
3.5605934322387065,-0.4547559183947115,7
3.570595099183197,-0.3908984790895289,7
3.5805967661276883,-0.3052305222512356,7
3.590598433072179,-0.23138357313616809,7
3.6006001000166696,-0.1551616716268704,7
3.6106017669611603,-0.0704761424257705,7
3.620603433905651,0.019194338174519744,7
3.6306051008501417,0.11068605193317396,7
3.6406067677946328,0.193975676598767,7
3.6506084347391234,0.26043105830241137,7
3.660610101683614,0.34716916589491925,7
3.670611768628105,0.413738804640258,7
3.6806134355725955,0.4827739695411888,7
3.690615102517086,0.5484235189909618,7
3.7006167694615772,0.6151017790704348,7
3.710618436406068,0.6453411327370331,7
3.7206201033505586,0.7078377480772733,7
3.7306217702950493,0.723629124857823,7
3.74062343723954,0.7505629435772493,7
3.7506251041840306,0.7609480682736881,7
3.7606267711285217,0.7875277013820928,7
3.7706284380730124,0.779098167861889,7
3.780630105017503,0.7724038960615467,7
3.7906317719619937,0.7672071546626148,7
3.8006334389064844,0.7473738958831901,7
3.810635105850975,0.7215353805978202,7
3.820636772795466,0.6694391635950595,7
3.830638439739957,0.6661818535706144,7
3.8406401066844476,0.6054401787645978,7
3.8506417736289382,0.5659526184857225,7
3.860643440573429,0.5137714960544799,7
3.87064510751792,0.46441528422672246,7
3.8806467744624107,0.41503993683312557,7
3.8906484414069014,0.37756214827506457,7
3.900650108351392,0.32213488773457455,7
3.9106517752958827,0.30205913139948065,7
3.9206534422403734,0.25474892178442987,7
3.9306551091848645,0.21472886115635764,7
3.940656776129355,0.1828205151652905,7
3.950658443073846,0.15771820240455467,7
3.9606601100183365,0.11888158707258378,7
3.970661776962827,0.07731766102219008,7
3.980663443907318,0.06967374270765765,7
3.990665110851809,0.059472983861820775,7
4.000666777796299,0.05392212000290567,7
4.01066844474079,0.014363223900005145,7
4.020670111685281,0.004888963864234239,7
4.030671778629772,0.005546946861183582,7
4.040673445574263,-0.014542851544966106,7
4.0506751125187535,-0.003853808515061191,7
4.060676779463244,-0.007745888793114972,7
4.070678446407735,-0.03386627280530709,7
4.0806801133522255,-0.012357755226609982,7
4.090681780296716,0.019709832757836453,7
4.100683447241207,-0.0024674009614175413,7
4.1106851141856975,-0.012640430141787073,7
4.120686781130188,-0.019636941606654152,7
4.130688448074679,-0.003251640467128277,7
4.14069011501917,-0.02741504870688056,7
4.150691781963661,-0.055050461062418274,7
4.160693448908152,-0.0684364970414195,7
4.170695115852642,-0.10458990529558143,7
4.180696782797133,-0.10513190613716344,7
4.190698449741624,-0.14803477122064848,7
4.200700116686114,-0.17559731079666244,7
4.210701783630605,-0.22890350183733799,7
4.220703450575096,-0.2682694460250786,7
4.2307051175195864,-0.2979833386253475,7
4.240706784464077,-0.345660400247558,7
4.250708451408569,-0.386313411030204,7
4.260710118353059,-0.4456280869951854,7
4.27071178529755,-0.4913819100033627,7
4.280713452242041,-0.5361226976973106,7
4.290715119186531,-0.5806443832542875,7
4.300716786131022,-0.6284307470075374,7
4.310718453075513,-0.6516729634951848,7
4.320720120020003,-0.6915025255943494,7
4.330721786964494,-0.7325541500404246,7
4.340723453908985,-0.7531309516876326,7
4.350725120853475,-0.7813777807622763,7
4.360726787797966,-0.7670407216328534,7
4.370728454742458,-0.7720123189314277,7
4.380730121686948,-0.795575624466032,7
4.390731788631439,-0.7695448611825949,7
4.40073345557593,-0.7490794367608375,7
4.41073512252042,-0.7158686573771105,7
4.420736789464911,-0.683622243123804,7
4.430738456409402,-0.6425594248603947,7
4.440740123353892,-0.6053337001017586,7
4.450741790298383,-0.5320662466726054,7
4.460743457242874,-0.4835370633868915,7
4.470745124187364,-0.4066084627834459,7
4.480746791131855,-0.3286311504784243,7
4.490748458076347,-0.255859927099068,7
4.500750125020837,-0.16733531195966292,7
4.510751791965328,-0.09793805935452711,7
4.520753458909819,-0.005595530295297527,7
4.530755125854309,0.06508227742381409,7
4.5407567927988,0.1483110082301942,7
4.550758459743291,0.24073631817341962,7
4.560760126687781,0.32537215273397996,7
4.570761793632272,0.3889584544291611,7
4.580763460576763,0.4469467648252415,7
4.590765127521253,0.5046223855126216,7
4.600766794465745,0.5797024531027064,7
4.6107684614102356,0.6342088827285791,7
4.620770128354726,0.6849209226019448,7
4.630771795299217,0.7056796153424756,7
4.640773462243708,0.7176534910073625,7
4.650775129188198,0.7662040292149898,7
4.660776796132689,0.7780521835602864,7
4.67077846307718,0.787254457336847,7
4.68078013002167,0.7815149593163009,7
4.690781796966161,0.756928467022337,7
4.700783463910652,0.7569498877352754,7
4.710785130855142,0.725713154255169,7
4.720786797799634,0.7021321881776462,7
4.7307884647441245,0.6732908064086865,7
4.740790131688615,0.636943016062712,7
4.750791798633106,0.6100507514519924,7
4.7607934655775965,0.547691632203037,7
4.770795132522087,0.4904861921925313,7
4.780796799466578,0.4388383767056327,7
4.7907984664110685,0.40390128477824155,7
4.800800133355559,0.36618809390165247,7
4.81080180030005,0.3248559372885849,7
4.820803467244541,0.280063288682175,7
4.830805134189032,0.22395925281066584,7
4.840806801133523,0.2071526312864321,7
4.8508084680780135,0.1648354527307179,7
4.860810135022504,0.1338981059599346,7
4.870811801966995,0.10322323788968357,7
4.8808134689114855,0.09101355779195368,7
4.890815135855976,0.06137504386126335,7
4.900816802800467,0.03306792594159304,7
4.9108184697449575,0.027803732624457678,7
4.920820136689448,0.018887553692003428,7
4.930821803633939,0.014787989081386413,7
4.9408234705784295,0.0018384005751220754,7
4.950825137522921,-0.014350332680678535,7
4.960826804467412,0.021507736538224145,7
4.970828471411902,0.002124293594285158,7
4.980830138356393,-0.000380375215417433,7
4.990831805300884,0.02058723033380805,7
5.0008334722453744,0.009895657509128134,7
5.010835139189865,-0.02264904242191015,7
5.020836806134356,-0.020326605037966433,7
5.0308384730788465,-0.015051409108914102,7
5.040840140023337,-0.025328645105440997,7
5.050841806967828,-0.027885458253810124,7
5.0608434739123185,-0.05987215375115463,7
5.07084514085681,-0.07677655684084814,7
5.080846807801301,-0.11294448973601026,7
5.090848474745791,-0.1337248517708804,7
5.100850141690282,-0.1616196397109957,7
5.110851808634773,-0.20793071616680459,7
5.120853475579263,-0.23521290869166753,7
5.130855142523754,-0.28828269605095297,7
5.140856809468245,-0.3490544485125209,7
5.150858476412735,-0.3763192033582368,7
5.160860143357226,-0.4071752191378568,7
5.170861810301717,-0.4730179920369106,7
5.180863477246208,-0.49678642071794216,7
5.190865144190699,-0.5566780153605629,7
5.20086681113519,-0.5942893052164142,7
5.21086847807968,-0.6281496910923706,7
5.220870145024171,-0.6795726742711853,7
5.230871811968662,-0.6905218373601665,7
5.240873478913152,-0.7200811352274606,7
5.250875145857643,-0.758394984327569,7
5.260876812802134,-0.7509933687739165,7
5.270878479746624,-0.7877443471310768,7
5.280880146691115,-0.7721939814368927,7
5.290881813635606,-0.7836269831040384,7
5.300883480580097,-0.7814476411762905,7
5.310885147524588,-0.7326765179868348,7
5.320886814469079,-0.713384319015935,7
5.330888481413569,-0.6555333512527582,7
5.34089014835806,-0.6038953504954194,7
5.350891815302551,-0.5606811915707142,7
5.360893482247041,-0.5138770302165807,7
5.370895149191532,-0.44604739672212435,7
5.380896816136023,-0.3656797507407728,7
5.390898483080513,-0.28486320973703777,7
5.400900150025004,-0.20404395835979064,7
5.410901816969495,-0.12775582824674186,7
5.420903483913986,-0.04210271283758296,7
5.430905150858477,0.03239214254343676,7
5.440906817802968,0.137510781212201,7
5.450908484747458,0.2077584228900926,7
5.460910151691949,0.27648665162651503,7
5.47091181863644,0.3405692468526467,7
5.48091348558093,0.42690205666361375,7
5.490915152525421,0.49384401273202533,7
5.500916819469912,0.5478407896867127,7
5.510918486414402,0.6180249251180214,7
5.520920153358893,0.6376285360573373,7
5.5309218203033845,0.6774983524622881,7
5.540923487247875,0.7279258987399435,7
5.550925154192366,0.7591966176058504,7
5.5609268211368565,0.7717179339638142,7
5.570928488081347,0.789070189326448,7
5.580930155025838,0.7809246214933921,7
5.590931821970329,0.7610105125794123,7
5.600933488914819,0.7476105132424334,7
5.61093515585931,0.7493985653788785,7
5.620936822803801,0.7098459841296312,7
5.630938489748291,0.6743084350997375,7
5.640940156692782,0.6433874520506353,7
5.6509418236372735,0.6223590721586588,7
5.660943490581764,0.5658235004319876,7
5.670945157526255,0.5066004235276721,7
5.6809468244707455,0.47161965131022227,7
5.690948491415236,0.4311123235867164,7
5.700950158359727,0.38101905704394845,7
5.7109518253042175,0.3363312077605002,7
5.720953492248708,0.2862799733226926,7
5.730955159193199,0.24467549658439192,7
5.7409568261376895,0.19946802285642146,7
5.75095849308218,0.17761292386350885,7
5.760960160026672,0.14787924708300682,7
5.7709618269711624,0.1196656527263537,7
5.780963493915653,0.07475330090095011,7
5.790965160860144,0.07543632799721642,7
5.8009668278046345,0.04521172066106265,7
5.810968494749125,0.025568721833766607,7
5.820970161693616,0.0015813325296810503,7
5.8309718286381065,0.0069809179885642605,7
5.840973495582597,-0.002846087165828959,7
5.850975162527088,0.026181751411663352,7
5.8609768294715785,-0.001407489146719872,7
5.870978496416069,-0.0025864991953171382,7
5.880980163360561,-0.0034270869400648205,7
5.890981830305051,-0.0069939291120931545,7
5.900983497249542,-0.012050821363004423,7
5.910985164194033,0.01118131118076257,7
5.920986831138523,-0.001605220528320686,7
5.930988498083014,-0.004876796119404125,7
5.940990165027505,-0.02806211566270923,7
5.950991831971995,-0.02651545273568571,7
5.960993498916486,-0.039935165165164294,7
5.970995165860977,-0.0663176302669549,7
5.9809968328054675,-0.09811387571760122,7
5.990998499749958,-0.1303165025366497,7
6.00100016669445,-0.15317176011935849,7
6.01100183363894,-0.17151141102524273,7
6.021003500583431,-0.23300763173700254,7
6.031005167527922,-0.25664438448244603,7
6.041006834472412,-0.309186353369777,7
6.051008501416903,-0.3507162005132516,7
6.061010168361394,-0.3943234579362759,7
6.071011835305884,-0.4385508905312596,7
6.081013502250375,-0.519599560657835,7
6.091015169194866,-0.5357436636427096,7
6.101016836139356,-0.6013410872466194,7
6.111018503083848,-0.6224615433583248,7
6.121020170028339,-0.6613925350400213,7
6.131021836972829,-0.7142928938598135,7
6.14102350391732,-0.7431188197515126,7
6.151025170861811,-0.7459138806785638,7
6.161026837806301,-0.766390235767756,7
6.171028504750792,-0.7735972078662667,7
6.181030171695283,-0.7749957615137478,7
6.191031838639773,-0.7765974921633381,7
6.201033505584264,-0.7683585951560369,7
6.211035172528755,-0.7704337629969387,7
6.221036839473245,-0.7232154286920325,7
6.231038506417737,-0.6651007702013192,7
6.241040173362228,-0.6189053145166122,7
6.251041840306718,-0.5885007664776751,7
6.261043507251209,-0.5349108958853838,7
6.2710451741957,-0.4554937542549923,7
6.28104684114019,-0.4016199999061213,7
6.291048508084681,-0.32562377406232645,7
6.301050175029172,-0.25962172930150174,7
6.311051841973662,-0.18022532985632506,7
6.321053508918153,-0.07720464302021646,7
6.331055175862644,0.0003938026868567533,7
6.341056842807134,0.09092844945293332,7
6.351058509751626,0.15797772992436201,7
6.361060176696117,0.22930756152212858,7
6.371061843640607,0.318303267601107,7
6.381063510585098,0.36545388571281295,7
6.391065177529589,0.46163224709088063,7
6.401066844474079,0.5204910675985024,7
6.41106851141857,0.6010062189244734,7
6.421070178363061,0.637963295555358,7
6.431071845307551,0.6680513485455722,7
6.441073512252042,0.708067922893462,7
6.451075179196533,0.7261025509275439,7
6.461076846141024,0.7444146481051027,7
6.471078513085515,0.773512420873238,7
6.4810801800300055,0.7658185010474005,7
6.491081846974496,0.757612069396913,7
6.501083513918987,0.7554774900789256,7
6.5110851808634775,0.7580247518166467,7
6.521086847807968,0.7325452906621787,7
6.531088514752459,0.7054864254767945,7
6.54109018169695,0.6575868875697448,7
6.55109184864144,0.6288696945486919,7
6.561093515585931,0.5729540455608846,7
6.571095182530422,0.5412635408394595,7
6.581096849474913,0.4954878216149872,7
6.591098516419404,0.44735339548436454,7
6.6011001833638945,0.40886247624317834,7
6.611101850308385,0.34732817863144066,7
6.621103517252876,0.3104241395400096,7
6.6311051841973665,0.29226429384139097,7
6.641106851141857,0.22008367890831756,7
6.651108518086348,0.19709058412146577,7
6.6611101850308385,0.1461151266012846,7
6.671111851975329,0.10823662807290763,7
6.68111351891982,0.10181689022769023,7
6.6911151858643105,0.07336350291357589,7
6.701116852808802,0.04682830902075972,7
6.711118519753293,0.05184491937749401,7
6.721120186697783,0.03315596020063112,7
6.731121853642274,0.0037863033970601985,7
6.741123520586765,0.0016450288175024847,7
6.7511251875312555,-0.0013673580381640474,7
6.761126854475746,-0.009635174863976413,7
6.771128521420237,0.012430618191888725,7
6.7811301883647275,0.0012449280681385805,7
6.791131855309218,-0.0021358651701666826,7
6.801133522253709,0.00032447671204041033,7
6.8111351891982,0.015641380414095678,7
6.821136856142691,0.002746234087067463,7
6.831138523087182,-0.010870339407565181,7
6.841140190031672,-0.01224430138671783,7
6.851141856976163,-0.033481466576830175,7
6.861143523920654,-0.043462368518913455,7
6.871145190865144,-0.06655353869551629,7
6.881146857809635,-0.08611818378951525,7
6.891148524754126,-0.10914414560338662,7
6.901150191698616,-0.1405062016080377,7
6.911151858643107,-0.16389537593275585,7
6.921153525587598,-0.2118720423745399,7
6.931155192532089,-0.24265903964438681,7
6.94115685947658,-0.2899530987202488,7
6.951158526421071,-0.32150085266601586,7
6.961160193365561,-0.37903090702422554,7
6.971161860310052,-0.42215740222114184,7
6.981163527254543,-0.4822690795931226,7
6.991165194199033,-0.5175912242220587,7
7.001166861143524,-0.5609772693711188,7
7.011168528088015,-0.5963274093473077,7
7.021170195032505,-0.6585801150716738,7
7.031171861976996,-0.6658913334837916,7
7.041173528921487,-0.7128183217830854,7
7.051175195865978,-0.7258658430968875,7
7.061176862810469,-0.7712332301313259,7
7.07117852975496,-0.776970013034435,7
7.08118019669945,-0.7739182553101088,7
7.091181863643941,-0.7690892749442668,7
7.101183530588432,-0.7874492899538738,7
7.111185197532922,-0.7482411509562018,7
7.121186864477413,-0.7248768396435742,7
7.131188531421904,-0.701248291098613,7
7.141190198366394,-0.6463575075937589,7
7.151191865310885,-0.5824320307028849,7
7.161193532255377,-0.5508267102311418,7
7.171195199199867,-0.5066534767826566,7
7.181196866144358,-0.4303655267520954,7
7.191198533088849,-0.36505874028229873,7
7.201200200033339,-0.2889458865847337,7
7.21120186697783,-0.20872847472519498,7
7.221203533922321,-0.11235218409305459,7
7.231205200866811,-0.03239478960289577,7
7.241206867811302,0.055698069808845035,7
7.251208534755793,0.1449066250550835,7
7.261210201700283,0.2085727646793926,7
7.271211868644774,0.2674716154724376,7
7.2812135355892655,0.36021100361512826,7
7.291215202533756,0.4318039070025304,7
7.301216869478247,0.499436422872568,7
7.311218536422738,0.5676846485823284,7
7.321220203367228,0.621835219312832,7
7.331221870311719,0.6771600560731565,7
7.34122353725621,0.7049053901491479,7
7.3512252042007,0.7260236179684499,7
7.361226871145191,0.7636873188328218,7
7.371228538089682,0.761868602878654,7
7.381230205034172,0.776964431302886,7
7.391231871978664,0.7708680562863746,7
7.4012335389231545,0.7823963567495709,7
7.411235205867645,0.7577381640449018,7
7.421236872812136,0.7377761578859571,7
7.4312385397566265,0.6935051552873485,7
7.441240206701117,0.6669124728970761,7
7.451241873645608,0.6467548752611643,7
7.4612435405900985,0.6082140961196352,7
7.471245207534589,0.5646656187675719,7
7.48124687447908,0.5218590072860844,7
7.4912485414235706,0.4706001995672051,7
7.501250208368061,0.4190538300559858,7
7.511251875312553,0.37681088386347583,7
7.5212535422570435,0.32205345040424915,7
7.531255209201534,0.29753432026027343,7
7.541256876146025,0.2248867123713728,7
7.5512585430905155,0.20153201678637458,7
7.561260210035006,0.17190790168766437,7
7.571261876979497,0.12900714309736414,7
7.5812635439239875,0.10444336369236873,7
7.591265210868478,0.08265718552636926,7
7.601266877812969,0.06073038704984083,7
7.6112685447574595,0.03795494270372294,7
7.62127021170195,0.049746525647100484,7
7.631271878646442,0.007227519460751154,7
7.641273545590932,0.0007864737008029081,7
7.651275212535423,0.006711738006557748,7
7.661276879479914,0.010726764479971555,7
7.671278546424404,0.010480086615756395,7
7.681280213368895,0.011593623314663676,7
7.691281880313386,-0.003347563001873365,7
7.7012835472578764,-0.00714568262691026,7
7.711285214202367,-0.01342897454088642,7
7.721286881146858,-0.005088937131575514,7
7.7312885480913485,-0.016572495137109414,7
7.74129021503584,-0.024157712106629807,7
7.751291881980331,-0.01512051870282131,7
7.761293548924821,-0.045076436560399794,7
7.771295215869312,-0.03579152549296677,7
7.781296882813803,-0.06596949885445488,7
7.791298549758293,-0.11755151707227929,7
7.801300216702784,-0.12450543699633573,7
7.811301883647275,-0.1602210277957804,7
7.821303550591765,-0.19871817904229822,7
7.831305217536256,-0.21360370434567647,7
7.841306884480747,-0.2536660940367717,7
7.851308551425237,-0.3136515432354608,7
7.861310218369729,-0.361440877740759,7
7.87131188531422,-0.41072897907053124,7
7.88131355225871,-0.4387757830729954,7
7.891315219203201,-0.4867378905758707,7
7.901316886147692,-0.5396989049173986,7
7.911318553092182,-0.5777285365306238,7
7.921320220036673,-0.6203035673864228,7
7.931321886981164,-0.6621299088999238,7
7.941323553925654,-0.6932319532134177,7
7.951325220870145,-0.723987043250515,7
7.961326887814636,-0.7339525227628247,7
7.971328554759126,-0.7673245836262574,7
7.981330221703618,-0.7954218498328917,7
7.991331888648109,-0.7772459089041888,7
8.001333555592598,-0.7776319626991376,7
8.01133522253709,-0.7553459257347301,7
8.02133688948158,-0.721735192126438,7
8.031338556426071,-0.7202504850844317,7
8.041340223370563,-0.6839731281450738,7
8.051341890315053,-0.6135198149051123,7
8.061343557259544,-0.5826916358496177,7
8.071345224204034,-0.5329369816665583,7
8.081346891148526,-0.45788379859618356,7
8.091348558093015,-0.3838057645572735,7
8.101350225037507,-0.32452837009589924,7
8.111351891981997,-0.2536808628215042,7
8.121353558926488,-0.14799985960429332,7
8.131355225870978,-0.08348531512356293,7
8.14135689281547,-0.005680552244307397,7
8.151358559759961,0.09885929901667058,7
8.161360226704451,0.18577087723208321,7
8.171361893648942,0.2585707965672733,7
8.181363560593432,0.33573992098238525,7
8.191365227537924,0.3823280511600875,7
8.201366894482414,0.4651459625569949,7
8.211368561426905,0.5488394838225614,7
8.221370228371395,0.5890414955384461,7
8.231371895315887,0.6572382297143324,7
8.241373562260376,0.6668341111248919,7
8.251375229204868,0.7126057854547917,7
8.261376896149358,0.7484311335586458,7
8.27137856309385,0.7706261086155037,7
8.28138023003834,0.7751023570826363,7
8.29138189698283,0.8055646607767546,7
8.301383563927322,0.775015892694975,7
8.311385230871812,0.7571236002650507,7
8.321386897816303,0.7321619927986173,7
8.331388564760793,0.7287288937449254,7
8.341390231705285,0.7001238945706753,7
8.351391898649775,0.6667173441915869,7
8.361393565594266,0.6200098223931975,7
8.371395232538756,0.580368290880356,7
8.381396899483248,0.5406559169539982,7
8.391398566427739,0.5052921307391761,7
8.401400233372229,0.45168700105779785,7
8.41140190031672,0.39657742286662556,7
8.42140356726121,0.32618615098041787,7
8.431405234205702,0.2923745105692578,7
8.441406901150192,0.2490887685552005,7
8.451408568094683,0.23332500181513816,7
8.461410235039173,0.16807390847458695,7
8.471411901983664,0.15364292673756855,7
8.481413568928154,0.10996272346861534,7
8.491415235872646,0.0926585160126437,7
8.501416902817137,0.07280409529492865,7
8.511418569761627,0.048423734821527634,7
8.521420236706119,0.026295854448361595,7
8.531421903650608,0.021358780269812888,7
8.5414235705951,0.016500039439121338,7
8.55142523753959,0.009330814018654291,7
8.561426904484081,0.015311817743570726,7
8.571428571428571,-0.006044819545370821,7
8.581430238373063,0.019407988540399795,7
8.591431905317553,0.012322362882160261,7
8.601433572262044,-0.007825819179296787,7
8.611435239206534,-0.01412603472160595,7
8.621436906151025,-0.010614590653173508,7
8.631438573095517,-0.011957209184382776,7
8.641440240040007,-0.0033465908370704667,7
8.651441906984498,-0.01557292469243124,7
8.661443573928988,-0.03879927213690929,7
8.67144524087348,-0.041400905069735455,7
8.68144690781797,-0.07836620594596226,7
8.691448574762461,-0.08487584599943915,7
8.70145024170695,-0.1015815431323271,7
8.711451908651442,-0.13093041549984022,7
8.721453575595932,-0.1703060423905676,7
8.731455242540424,-0.20073764830748064,7
8.741456909484915,-0.2606327470161646,7
8.751458576429405,-0.2936037776614527,7
8.761460243373897,-0.3509300671792993,7
8.771461910318386,-0.3846911676200796,7
8.781463577262878,-0.43121538764332135,7
8.791465244207368,-0.4660609295830983,7
8.80146691115186,-0.5213523543304461,7
8.811468578096349,-0.556296311237165,7
8.82147024504084,-0.6140811204098774,7
8.83147191198533,-0.6619821869162245,7
8.841473578929822,-0.6828532619308568,7
8.851475245874314,-0.7144436714397341,7
8.861476912818803,-0.7301285989648078,7
8.871478579763295,-0.7496989959812671,7
8.881480246707785,-0.7532821047948071,7
8.891481913652276,-0.761535453482155,7
8.901483580596766,-0.7962727318651658,7
8.911485247541258,-0.7527503653170831,7
8.921486914485747,-0.7581319902891397,7
8.931488581430239,-0.7262664823787154,7
8.941490248374729,-0.6808757727640214,7
8.95149191531922,-0.6380598637474764,7
8.96149358226371,-0.6122192674425092,7
8.971495249208202,-0.5413125074748091,7
8.981496916152693,-0.478098097096521,7
8.991498583097183,-0.4236247845348395,7
9.001500250041675,-0.3467436165747486,7
9.011501916986164,-0.2690355523611125,7
9.021503583930656,-0.18425586537518665,7
9.031505250875146,-0.09596642194703783,7
9.041506917819637,-0.020623237640477465,7
9.051508584764127,0.08716241773265403,7
9.061510251708619,0.15272932547506182,7
9.071511918653108,0.21762483583135817,7
9.0815135855976,0.30703823503101496,7
9.091515252542091,0.39829075623938626,7
9.101516919486581,0.4356913098257627,7
9.111518586431073,0.5078959574745048,7
9.121520253375563,0.5779200830430591,7
9.131521920320054,0.6263636700479197,7
9.141523587264544,0.6767737172001622,7
9.151525254209036,0.7066024587101162,7
9.161526921153525,0.7265934414924712,7
9.171528588098017,0.7509743078568413,7
9.181530255042507,0.7797805606758317,7
9.191531921986998,0.7825433424821752,7
9.20153358893149,0.7823578161475252,7
9.21153525587598,0.7761834426433561,7
9.221536922820471,0.7486185828654268,7
9.231538589764961,0.725283196232455,7
9.241540256709452,0.7181444821018472,7
9.251541923653942,0.6679467448956486,7
9.261543590598434,0.6408575249732313,7
9.271545257542924,0.5999431990820767,7
9.281546924487415,0.5603751792697316,7
9.291548591431905,0.5250620605632962,7
9.301550258376396,0.47546608075621466,7
9.311551925320888,0.40415798017242166,7
9.321553592265378,0.3743681689770755,7
9.33155525920987,0.3171177863863044,7
9.34155692615436,0.2763038128647646,7
9.35155859309885,0.22528263986427396,7
9.36156026004334,0.2095149427498006,7
9.371561926987832,0.16303672773048916,7
9.381563593932322,0.12801088653782267,7
9.391565260876813,0.09924927537857375,7
9.401566927821303,0.09069492141378903,7
9.411568594765795,0.06499551675369977,7
9.421570261710285,0.030768178685076523,7
9.431571928654776,0.030476446625683926,7
9.441573595599268,0.01471882722214398,7
9.451575262543757,0.011610935778722723,7
9.461576929488249,-0.011965321556117365,7
9.471578596432739,-4.4085512807031995e-05,7
9.48158026337723,0.005520337416325367,7
9.49158193032172,0.004337003354276752,7
9.501583597266212,0.015390535205368462,7
9.511585264210701,-0.013881207212084664,7
9.521586931155193,0.0030760446577808437,7
9.531588598099683,-0.009713389725617496,7
9.541590265044174,-0.006654799455440442,7
9.551591931988666,0.0072387579332049215,7
9.561593598933156,-0.02114117914280834,7
9.571595265877647,-0.06282923757788988,7
9.581596932822137,-0.06858100600242618,7
9.591598599766629,-0.06439563677000743,7
9.601600266711118,-0.11790882727835615,7
9.61160193365561,-0.1285654029439509,7
9.6216036006001,-0.1444227667279249,7
9.631605267544591,-0.1757471921317889,7
9.641606934489081,-0.2381812981482624,7
9.651608601433573,-0.2815068417470131,7
9.661610268378064,-0.3262051412905898,7
9.671611935322554,-0.3757914545435385,7
9.681613602267046,-0.39035963880215,7
9.691615269211535,-0.45224308471395935,7
9.701616936156027,-0.5044868798039923,7
9.711618603100517,-0.5305748087635345,7
9.721620270045008,-0.5962701261986707,7
9.731621936989498,-0.62802812394326,7
9.74162360393399,-0.6688536142708805,7
9.75162527087848,-0.6977526602101777,7
9.761626937822971,-0.7446761478620331,7
9.77162860476746,-0.7695996192338252,7
9.781630271711952,-0.7616787703121202,7
9.791631938656444,-0.7710605076552605,7
9.801633605600934,-0.7704658863783455,7
9.811635272545425,-0.7702130585828134,7
9.821636939489915,-0.7719457006440066,7
9.831638606434407,-0.7480010455724385,7
9.841640273378896,-0.7024501811138438,7
9.851641940323388,-0.6811378559072695,7
9.861643607267878,-0.6289342084329569,7
9.87164527421237,-0.5594473063296636,7
9.881646941156859,-0.5192594518897975,7
9.89164860810135,-0.4621923505551727,7
9.901650275045842,-0.37549641259486227,7
9.911651941990332,-0.29651922730416014,7
9.921653608934824,-0.23382610523590525,7
9.931655275879313,-0.1465474889350486,7
9.941656942823805,-0.06429717854050197,7
9.951658609768295,0.026739708854266086,7
9.961660276712786,0.10553103262753948,7
9.971661943657276,0.189170955635319,7
9.981663610601768,0.26438466163926305,7
9.991665277546257,0.3462297156192051,7
10.001666944490749,0.3963330880666455,7
10.01166861143524,0.49300293026198255,7
10.02167027837973,0.5291246748254762,7
10.031671945324222,0.6116331255192924,7
10.041673612268712,0.6400910751334766,7
10.051675279213203,0.6943717560463306,7
10.061676946157693,0.7120292428877432,7
10.071678613102184,0.745434932121313,7
10.081680280046674,0.7696176418905288,7
10.091681946991166,0.7714213459257532,7
10.101683613935656,0.8006681772325707,7
10.111685280880147,0.773430646138656,7
10.121686947824637,0.754667445518738,7
10.131688614769129,0.7547562123784575,7
10.14169028171362,0.7148050270417992,7
10.15169194865811,0.6896374297431994,7
10.161693615602601,0.6546109357182412,7
10.171695282547091,0.630518668554316,7
10.181696949491583,0.5810221564433268,7
10.191698616436073,0.519851004332973,7
10.201700283380564,0.4769542093817279,7
10.211701950325054,0.43041216324487663,7
10.221703617269545,0.37203206972822717,7
10.231705284214035,0.33792414097494183,7
10.241706951158527,0.2954049259617716,7
10.251708618103018,0.2420778604648277,7
10.261710285047508,0.195849931754088,7
10.271711951992,0.18638829807629237,7
10.28171361893649,0.13828542641182848,7
10.291715285880981,0.10860090709416881,7
10.30171695282547,0.09950861069837254,7
10.311718619769962,0.08696881943833483,7
10.321720286714452,0.04596394588858326,7
10.331721953658944,0.03411010384707951,7
10.341723620603434,0.010384422689306729,7
10.351725287547925,-0.009700848103414844,7
10.361726954492417,0.011468220757350392,7
10.371728621436906,0.0013710365519747033,7
10.381730288381398,0.004907988476430123,7
10.391731955325888,-0.009103451137250206,7
10.40173362227038,-0.006988398440856061,7
10.41173528921487,-0.013148248781499446,7
10.42173695615936,-0.011905606562576857,7
10.43173862310385,-0.005146121537870223,7
10.441740290048342,-0.012670494809125188,7
10.451741956992832,-0.03140890136198833,7
10.461743623937323,-0.027285610729753447,7
10.471745290881813,-0.027697097595008463,7
10.481746957826305,-0.05171830675327074,7
10.491748624770796,-0.06886658636739157,7
10.501750291715286,-0.07047262988445535,7
10.511751958659778,-0.13750893173991482,7
10.521753625604267,-0.14509346338188045,7
10.531755292548759,-0.1726714494922788,7
10.541756959493249,-0.2287486908220088,7
10.55175862643774,-0.25598418807782997,7
10.56176029338223,-0.3027666290717156,7
10.571761960326722,-0.36101919060771104,7
10.581763627271211,-0.3953715032186706,7
10.591765294215703,-0.43072613428069323,7
10.601766961160195,-0.49224179800718504,7
10.611768628104684,-0.5441752302839242,7
10.621770295049176,-0.604003232775798,7
10.631771961993666,-0.6320966098220057,7
10.641773628938157,-0.6563554775154771,7
10.651775295882647,-0.6861242777195838,7
10.661776962827139,-0.7133601249921805,7
10.671778629771628,-0.7500880619037292,7
10.68178029671612,-0.7588481136971376,7
10.69178196366061,-0.7883646426832622,7
10.701783630605101,-0.7618632609125465,7
10.711785297549593,-0.7828511204535752,7
10.721786964494083,-0.7513333403990523,7
10.731788631438574,-0.7470055938543287,7
10.741790298383064,-0.7297763688117898,7
10.751791965327556,-0.6910269406352371,7
10.761793632272045,-0.6533463137764537,7
10.771795299216537,-0.6077869907370115,7
10.781796966161027,-0.5388875396543079,7
10.791798633105518,-0.4655115560681349,7
10.801800300050008,-0.41337882300989787,7
10.8118019669945,-0.3429936341331516,7
10.82180363393899,-0.24093204001093427,7
10.831805300883481,-0.1780714275899086,7
10.841806967827972,-0.11738332071485702,7
10.851808634772462,-0.02265913130336194,7
10.861810301716954,0.05594872465811982,7
10.871811968661444,0.14985635169936076,7
10.881813635605935,0.22697998896675742,7
10.891815302550425,0.3096911612585539,7
10.901816969494917,0.3652106626695766,7
10.911818636439406,0.4606972219951542,7
10.921820303383898,0.5049233835488339,7
10.931821970328388,0.5693242612217719,7
10.94182363727288,0.6227509856517313,7
10.95182530421737,0.683984256334716,7
10.96182697116186,0.6966253053982141,7
10.971828638106352,0.7358945233489529,7
10.981830305050842,0.7613765493991056,7
10.991831971995333,0.7605247080354539,7
11.001833638939823,0.7707055760689974,7
11.011835305884315,0.7865890551994037,7
11.021836972828805,0.7637551116839647,7
11.031838639773296,0.7492650230727156,7
11.041840306717786,0.7390759694140205,7
11.051841973662277,0.70219293274406,7
11.061843640606769,0.6764699531798374,7
11.071845307551259,0.6363943409353158,7
11.08184697449575,0.5900705871124028,7
11.09184864144024,0.5627767211760499,7
11.101850308384732,0.5041176567473459,7
11.111851975329222,0.4571430734861392,7
11.121853642273713,0.3994191590136353,7
11.131855309218203,0.3786081455875997,7
11.141856976162694,0.2935048958832641,7
11.151858643107184,0.28835474431493446,7
11.161860310051676,0.24367663631384917,7
11.171861976996166,0.21168956180996365,7
11.181863643940657,0.16408336791504868,7
11.191865310885149,0.14530300591608045,7
11.201866977829638,0.09774853082331181,7
11.21186864477413,0.10411908418719013,7
11.22187031171862,0.06393033351428921,7
11.231871978663111,0.022870840715414724,7
11.241873645607601,0.017950559062993046,7
11.251875312552093,0.017769288520123862,7
11.261876979496583,0.03048414579448945,7
11.271878646441074,0.012791254969708931,7
11.281880313385564,0.010853333060335833,7
11.291881980330055,0.016861436702336665,7
11.301883647274547,0.004078223422694511,7
11.311885314219037,-0.030285309549149736,7
11.321886981163528,0.0005802902779319808,7
11.331888648108018,0.004089583633588355,7
11.34189031505251,-0.0085325522636347,7
11.351891981997,-0.004890386494846162,7
11.361893648941491,-0.03671525363582301,7
11.37189531588598,-0.0581902098757178,7
11.381896982830472,-0.040546943794450445,7
11.391898649774962,-0.07505316641092499,7
11.401900316719454,-0.0830811376434204,7
11.411901983663945,-0.11155106111555733,7
11.421903650608435,-0.14102427560566214,7
11.431905317552927,-0.17286602461142592,7
11.441906984497416,-0.1999965296194321,7
11.451908651441908,-0.24223252328200415,7
11.461910318386398,-0.27935376795047484,7
11.47191198533089,-0.3096440989113528,7
11.481913652275379,-0.38017273096901305,7
11.49191531921987,-0.4113965435994859,7
11.50191698616436,-0.4620954785583272,7
11.511918653108852,-0.5092277359070321,7
11.521920320053344,-0.5600447224827879,7
11.531921986997833,-0.5853812987047146,7
11.541923653942325,-0.6404709784844417,7
11.551925320886815,-0.6585048342048604,7
11.561926987831306,-0.7096973056473569,7
11.571928654775796,-0.7449845875705325,7
11.581930321720288,-0.7581292725235547,7
11.591931988664777,-0.7709682323174386,7
11.601933655609269,-0.764748333851061,7
11.611935322553759,-0.7835755581013194,7
11.62193698949825,-0.7764806513917464,7
11.63193865644274,-0.7411131662466672,7
11.641940323387232,-0.735489245412569,7
11.651941990331723,-0.686899364602644,7
11.661943657276213,-0.6691963471928675,7
11.671945324220705,-0.6042684075481296,7
11.681946991165194,-0.5685598560770315,7
11.691948658109686,-0.5072240742451734,7
11.701950325054176,-0.4350419781378859,7
11.711951991998667,-0.3715436274664184,7
11.721953658943157,-0.31151189118849765,7
11.731955325887649,-0.21867998645259712,7
11.741956992832138,-0.13646316709681647,7
11.75195865977663,-0.04154918845215044,7
11.761960326721121,0.025691644474000654,7
11.771961993665611,0.092196307736804,7
11.781963660610103,0.1988391637002833,7
11.791965327554593,0.263836305877459,7
11.801966994499084,0.34602829842831745,7
11.811968661443574,0.4195350616435704,7
11.821970328388065,0.49366680451136136,7
11.831971995332555,0.5545790287350761,7
11.841973662277047,0.5979061271608219,7
11.851975329221537,0.6398973476319795,7
11.861976996166028,0.6818032408988816,7
11.87197866311052,0.7312209875327962,7
11.88198033005501,0.7335783107386536,7
11.891981996999501,0.7585484792654488,7
11.90198366394399,0.7640199680031392,7
11.911985330888482,0.7733166839600624,7
11.921986997832972,0.7820351311560342,7
11.931988664777464,0.7601064507325843,7
11.941990331721954,0.7387452819689855,7
11.951991998666445,0.7057766924696168,7
11.961993665610935,0.675436902454551,7
11.971995332555426,0.6411864911627755,7
11.981996999499916,0.5886143224391005,7
11.991998666444408,0.5692261769627516,7
12.0020003333889,0.5222694881554467,7
12.01200200033339,0.4595802989832818,7
12.02200366727788,0.4273834645887841,7
12.03200533422237,0.3873545975072486,7
12.042007001166862,0.3360531742706728,7
12.052008668111352,0.2994571914490544,7
12.062010335055843,0.25325617961127744,7
12.072012002000333,0.2260676001995344,7
12.082013668944825,0.16776177165484665,7
12.092015335889315,0.12891782992298864,7
12.102017002833806,0.11140638473108609,7
12.112018669778298,0.07897377759725452,7
12.122020336722787,0.06727211019920609,7
12.132022003667279,0.04928605399700954,7
12.142023670611769,0.04395952486550689,7
12.15202533755626,0.014849596719454808,7
12.16202700450075,0.004435811040258519,7
12.172028671445242,0.0009741951463697962,7
12.182030338389731,0.02801796409084131,7
12.192032005334223,0.007412912630650206,7
12.202033672278713,-0.008057437015536842,7
12.212035339223204,-0.00563714390551316,7
12.222037006167696,-0.00015662593740533302,7
12.232038673112186,-0.012618689911596181,7
12.242040340056677,-0.006270416258438698,7
12.252042007001167,0.00023228602426856194,7
12.262043673945659,-0.006120483515405919,7
12.272045340890148,-0.013038674942011462,7
12.28204700783464,-0.03813589720984566,7
12.29204867477913,-0.051997904510252754,7
12.302050341723621,-0.06448987491746622,7
12.312052008668111,-0.07730262906787294,7
12.322053675612603,-0.09666133576205171,7
12.332055342557092,-0.1518547725977122,7
12.342057009501584,-0.18648827499436832,7
12.352058676446076,-0.22773823503194535,7
12.362060343390565,-0.28743078180248255,7
12.372062010335057,-0.30612158109060783,7
12.382063677279547,-0.355290743525273,7
12.392065344224038,-0.4019493972124367,7
12.402067011168528,-0.4493232513294464,7
12.41206867811302,-0.4940984592019314,7
12.42207034505751,-0.5302171843410194,7
12.432072012002001,-0.5945634375626275,7
12.44207367894649,-0.6296388733782955,7
12.452075345890982,-0.6595361183336547,7
12.462077012835474,-0.6912060034355362,7
12.472078679779964,-0.7211240248450351,7
12.482080346724455,-0.7382427678200246,7
12.492082013668945,-0.7597084779127171,7
12.502083680613437,-0.7689732594073205,7
12.512085347557926,-0.7721190415168587,7
12.522087014502418,-0.7605566958533155,7
12.532088681446908,-0.7606444786543682,7
12.5420903483914,-0.7509777750106427,7
12.552092015335889,-0.7070565110820259,7
12.56209368228038,-0.6577588618105109,7
12.572095349224872,-0.6318869939149439,7
12.582097016169362,-0.5996738054927816,7
12.592098683113853,-0.5384272858601612,7
12.602100350058343,-0.4644424939045401,7
12.612102017002835,-0.39711764157181606,7
12.622103683947325,-0.3208424075637951,7
12.632105350891816,-0.22604074357632375,7
12.642107017836306,-0.16100034098184354,7
12.652108684780798,-0.09285256420395727,7
12.662110351725287,0.0032794630295297257,7
12.672112018669779,0.0735482946258642,7
12.682113685614269,0.17051342535673913,7
12.69211535255876,0.23928192556899733,7
12.702117019503252,0.30904340478329184,7
12.712118686447742,0.3889153293455222,7
12.722120353392233,0.46385765831045656,7
12.732122020336723,0.5264984900410925,7
12.742123687281214,0.5922816090967575,7
12.752125354225704,0.6448218759427243,7
12.762127021170196,0.6722253012500545,7
12.772128688114686,0.7133704363046012,7
12.782130355059177,0.736836426497565,7
12.792132022003667,0.7816868457113444,7
12.802133688948159,0.762605474042649,7
12.81213535589265,0.7898601051608164,7
12.82213702283714,0.7845313170900594,7
12.832138689781631,0.7694161365477787,7
12.842140356726121,0.7343590278785774,7
12.852142023670613,0.7207638527489425,7
12.862143690615103,0.7144506123884785,7
12.872145357559594,0.6783206144701459,7
12.882147024504084,0.6140745897063024,7
12.892148691448575,0.5843371837706461,7
12.902150358393065,0.5178932014745384,7
12.912152025337557,0.484514746706878,7
12.922153692282048,0.46031026601729336,7
12.932155359226538,0.41769587922378065,7
12.94215702617103,0.36078440938521067,7
12.95215869311552,0.3040797688288638,7
12.962160360060011,0.26305485306074594,7
12.9721620270045,0.20400660794999917,7
12.982163693948992,0.18283944051577025,7
12.992165360893482,0.15509404147664416,7
13.002167027837974,0.12866560112808165,7
13.012168694782464,0.08677262971782743,7
13.022170361726955,0.07060162166025842,7
13.032172028671445,0.05191748181758957,7
13.042173695615936,0.020492421741408865,7
13.052175362560428,0.024405192287950666,7
13.062177029504918,0.015948396151890108,7
13.07217869644941,0.008417143473314398,7
13.0821803633939,0.015501063486944605,7
13.09218203033839,-0.012503979837268987,7
13.10218369728288,-0.018243456521768345,7
13.112185364227372,-0.0026006061832874977,7
13.122187031171862,-0.0010335431029009003,7
13.132188698116353,0.017461881144924325,7
13.142190365060843,-0.005526795287863165,7
13.152192032005335,-0.006808302727628273,7
13.162193698949826,-0.020755529270092922,7
13.172195365894316,-0.0298604057004725,7
13.182197032838808,-0.02697296681521845,7
13.192198699783297,-0.06401080834331366,7
13.202200366727789,-0.06120937929122337,7
13.212202033672279,-0.07455089718375835,7
13.22220370061677,-0.10976867805644135,7
13.23220536756126,-0.15320959291597877,7
13.242207034505752,-0.16436936427807186,7
13.252208701450241,-0.2108065713805368,7
13.262210368394733,-0.25250747366613024,7
13.272212035339225,-0.28062606316245975,7
13.282213702283714,-0.31892209254847337,7
13.292215369228206,-0.3643861719221763,7
13.302217036172696,-0.42829752076863536,7
13.312218703117187,-0.48090534818984054,7
13.322220370061677,-0.5081907245498322,7
13.332222037006169,-0.5576333119870736,7
13.342223703950658,-0.6073964836705994,7
13.35222537089515,-0.6360103162740169,7
13.36222703783964,-0.6756147439917473,7
13.372228704784131,-0.70736606395937,7
13.382230371728621,-0.741084711962804,7
13.392232038673113,-0.7620468528621552,7
13.402233705617604,-0.7826387793232327,7
13.412235372562094,-0.7715067775972921,7
13.422237039506586,-0.7757935388994285,7
13.432238706451075,-0.7965446336858382,7
13.442240373395567,-0.7596670633248407,7
13.452242040340057,-0.7279285832074863,7
13.462243707284548,-0.6992502179556317,7
13.472245374229038,-0.6445499064346321,7
13.48224704117353,-0.6290853837169361,7
13.49224870811802,-0.5653822432361133,7
13.502250375062511,-0.488822391757639,7
13.512252042007002,-0.4315876138355623,7
13.522253708951492,-0.36847666128452505,7
13.532255375895984,-0.290384856578398,7
13.542257042840474,-0.2058542822679612,7
13.552258709784965,-0.12375882194522296,7
13.562260376729455,-0.05238704178267278,7
13.572262043673947,0.035427317620554274,7
13.582263710618436,0.12817631540019242,7
13.592265377562928,0.17430730026348648,7
13.602267044507418,0.2936491368610462,7
13.61226871145191,0.3691441396790936,7
13.6222703783964,0.4334933411373256,7
13.63227204534089,0.4975096882627676,7
13.642273712285382,0.5645217298479397,7
13.652275379229872,0.6100741812433693,7
13.662277046174363,0.6541642026433614,7
13.672278713118853,0.6917180898496564,7
13.682280380063345,0.7387402019126945,7
13.692282047007835,0.7512866870953231,7
13.702283713952326,0.7646227245494216,7
13.712285380896816,0.7631594993553953,7
13.722287047841307,0.775465570881459,7
13.732288714785797,0.7711344114713473,7
13.742290381730289,0.7545054339384504,7
13.75229204867478,0.7302180006858018,7
13.76229371561927,0.703271328253755,7
13.772295382563762,0.6677365087227584,7
13.782297049508252,0.637602217771141,7
13.792298716452743,0.6018549888983045,7
13.802300383397233,0.5545253866509251,7
13.812302050341724,0.5223666500789245,7
13.822303717286214,0.48151730756052225,7
13.832305384230706,0.42506124583254573,7
13.842307051175196,0.38674791907221384,7
13.852308718119687,0.33341234853388013,7
13.862310385064179,0.271832982289199,7
13.872312052008668,0.2153228828159917,7
13.88231371895316,0.23505368591682677,7
13.89231538589765,0.16495302634057324,7
13.902317052842141,0.14271409683129463,7
13.912318719786631,0.09301738145760342,7
13.922320386731123,0.07420531990788047,7
13.932322053675612,0.06541159847518578,7
13.942323720620104,0.04075526178127503,7
13.952325387564594,0.04275632958720619,7
13.962327054509085,0.01044501418683243,7
13.972328721453577,0.0030441945403811574,7
13.982330388398067,0.003964897885826962,7
13.992332055342558,-0.00947943631205683,7
14.002333722287048,0.021277919005972333,7
14.01233538923154,-0.005011403241730128,7
14.02233705617603,0.01045866658992433,7
14.032338723120521,0.011379327253743592,7
14.04234039006501,0.022195636875036878,7
14.052342057009502,-0.007028670813043269,7
14.062343723953992,0.010216660746776143,7
14.072345390898484,-0.0011843935722852406,7
14.082347057842973,-0.024867265071551445,7
14.092348724787465,-0.027362070601663235,7
14.102350391731957,-0.05251740800280801,7
14.112352058676446,-0.06888108210761082,7
14.122353725620938,-0.08764392792007639,7
14.132355392565428,-0.11834897477255216,7
14.14235705950992,-0.16248155687221158,7
14.152358726454409,-0.19003868616048342,7
14.1623603933989,-0.25417519999262844,7
14.17236206034339,-0.2686872301094116,7
14.182363727287882,-0.3233042667918679,7
14.192365394232372,-0.35252803831267526,7
14.202367061176863,-0.3926946299731157,7
14.212368728121355,-0.454586087131384,7
14.222370395065845,-0.5001892253531862,7
14.232372062010336,-0.5425007231609089,7
14.242373728954826,-0.5853555846431246,7
14.252375395899318,-0.627412171560514,7
14.262377062843807,-0.6516510954849094,7
14.272378729788299,-0.7157039084505245,7
14.282380396732789,-0.7424981638974663,7
14.29238206367728,-0.7586441382129898,7
14.30238373062177,-0.7641542840202351,7
14.312385397566262,-0.7794670300998854,7
14.322387064510753,-0.7739967935130789,7
14.332388731455243,-0.7814610692292201,7
14.342390398399735,-0.7680405153786054,7
14.352392065344224,-0.7327007917259726,7
14.362393732288716,-0.6988454317897508,7
14.372395399233206,-0.6599271906863071,7
14.382397066177697,-0.6263312630207558,7
14.392398733122187,-0.6000483081127783,7
14.402400400066679,-0.5300049522096305,7
14.412402067011168,-0.46820873237913746,7
14.42240373395566,-0.3777809710620196,7
14.432405400900151,-0.3235429708804176,7
14.442407067844641,-0.2421614429451667,7
14.452408734789133,-0.1633012897933298,7
14.462410401733623,-0.0764949049491588,7
14.472412068678114,0.01221317535195185,7
14.482413735622604,0.09767252063072875,7
14.492415402567095,0.16423254868149173,7
14.502417069511585,0.25916843069509965,7
14.512418736456077,0.32814890728040136,7
14.522420403400567,0.3828718591237742,7
14.532422070345058,0.47771199015347826,7
14.542423737289548,0.5270480812247436,7
14.55242540423404,0.5960793683816598,7
14.562427071178531,0.6470435103821509,7
14.57242873812302,0.6875364677717635,7
14.582430405067512,0.7251170233463081,7
14.592432072012002,0.7544181395508089,7
14.602433738956494,0.7407561668428421,7
14.612435405900984,0.7749239330762381,7
14.622437072845475,0.7781834423419971,7
14.632438739789965,0.7689103149276504,7
14.642440406734456,0.7518023020710418,7
14.652442073678946,0.7282237505248085,7
14.662443740623438,0.7141576919289346,7
14.67244540756793,0.7029126272092824,7
14.68244707451242,0.6606942830927987,7
14.69244874145691,0.6170919025272719,7
14.7024504084014,0.5614452385803677,7
14.712452075345892,0.5386119957472216,7
14.722453742290382,0.4908704635002622,7
14.732455409234873,0.4472602380059919,7
14.742457076179363,0.3830379870388096,7
14.752458743123855,0.34386796850424,7
14.762460410068345,0.30131463765704897,7
14.772462077012836,0.2608936081952568,7
14.782463743957328,0.2183382782240554,7
14.792465410901817,0.1824121602896129,7
14.802467077846309,0.1570868341689341,7
14.812468744790799,0.12308802732805396,7
14.82247041173529,0.09720309349088763,7
14.83247207867978,0.07546419827941146,7
14.842473745624272,0.06455781166017698,7
14.852475412568761,0.04205610419261793,7
14.862477079513253,0.026885444839183283,7
14.872478746457743,0.026166296808733898,7
14.882480413402234,0.007333777633352447,7
14.892482080346724,0.0003137656872780328,7
14.902483747291216,0.005211936346637354,7
14.912485414235707,0.013560602097619582,7
14.922487081180197,-0.003267634846922162,7
14.932488748124689,-0.019792631552872638,7
14.942490415069178,0.0004024655012626894,7
14.95249208201367,-0.017997432815577794,7
14.96249374895816,-0.015250628105012395,7
14.972495415902651,-0.029707043019011534,7
14.982497082847141,-0.016740726282626406,7
14.992498749791633,-0.028944108236753956,7
15.002500416736122,-0.04392626751089914,7
15.012502083680614,-0.04684119781175933,7
15.022503750625106,-0.08547184445056263,7
15.032505417569595,-0.10438751114883395,7
15.042507084514087,-0.13870744375445285,7
15.052508751458577,-0.17194756516062223,7
15.062510418403068,-0.2131783743322761,7
15.072512085347558,-0.2535122255767923,7
15.08251375229205,-0.29133606605723766,7
15.09251541923654,-0.33560857809075983,7
15.102517086181031,-0.3752778493622231,7
15.11251875312552,-0.431192204126657,7
15.122520420070012,-0.46941129777650764,7
15.132522087014504,-0.5249666989639001,7
15.142523753958994,-0.5702438811976311,7
15.152525420903485,-0.6063015510101958,7
15.162527087847975,-0.6449733629702694,7
15.172528754792467,-0.7023497421955704,7
15.182530421736956,-0.704974989805256,7
15.192532088681448,-0.760496172056942,7
15.202533755625938,-0.7474065802359527,7
15.21253542257043,-0.7539412326730677,7
15.222537089514919,-0.7872594403696045,7
15.23253875645941,-0.781972179540766,7
15.2425404234039,-0.7724551999049675,7
15.252542090348392,-0.738598537491498,7
15.262543757292883,-0.7328562262422914,7
15.272545424237373,-0.7089929393872911,7
15.282547091181865,-0.6569065588678918,7
15.292548758126355,-0.6283108116310375,7
15.302550425070846,-0.5583232137496024,7
15.312552092015336,-0.49594628809141433,7
15.322553758959828,-0.42273857017949423,7
15.332555425904317,-0.33603697015503176,7
15.342557092848809,-0.26904416284712956,7
15.352558759793299,-0.19296635009576088,7
15.36256042673779,-0.11271806917144399,7
15.372562093682282,-0.04246612952577938,7
15.382563760626772,0.055253131905072736,7
15.392565427571263,0.13995145936155665,7
15.402567094515753,0.2249996779061026,7
15.412568761460244,0.288255886535486,7
15.422570428404734,0.3712638478533553,7
15.432572095349226,0.44222715319637024,7
15.442573762293716,0.5091473073047258,7
15.452575429238207,0.567226265180945,7
15.462577096182697,0.61670966287613,7
15.472578763127188,0.6655478884733891,7
15.48258043007168,0.7124120071809215,7
15.49258209701617,0.7426086983509743,7
15.502583763960661,0.7510694622298686,7
15.512585430905151,0.7803486735188537,7
15.522587097849643,0.7833962058760878,7
15.532588764794133,0.7650084328728902,7
15.542590431738624,0.7758395549497049,7
15.552592098683114,0.7498425612116322,7
15.562593765627605,0.7408894105367146,7
15.572595432572095,0.7148687550892374,7
15.582597099516587,0.6787493099660157,7
15.592598766461077,0.6560543607517971,7
15.602600433405568,0.5945389156275898,7
15.61260210035006,0.5757431645121533,7
15.62260376729455,0.5126878658346591,7
15.632605434239041,0.46011018181433255,7
15.64260710118353,0.41662288797177377,7
15.652608768128022,0.3654069264417415,7
15.662610435072512,0.30317631134514594,7
15.672612102017004,0.29719717967580783,7
15.682613768961494,0.2363249826045272,7
15.692615435905985,0.20132315479606608,7
15.702617102850475,0.16533146052717732,7
15.712618769794966,0.12714602040332673,7
15.722620436739458,0.11520217318637498,7
15.732622103683948,0.08968527312782516,7
15.74262377062844,0.056240559511048366,7
15.752625437572929,0.03646842962139505,7
15.76262710451742,0.03681068521127552,7
15.77262877146191,0.026584554873337767,7
15.782630438406402,-0.0034453160779531877,7
15.792632105350892,0.009111850512499086,7
15.802633772295383,-0.008945585007008884,7
15.812635439239873,-0.016986070813008496,7
15.822637106184365,-0.005370192281004226,7
15.832638773128856,-0.005993869969247813,7
15.842640440073346,-0.011902115138900587,7
15.852642107017838,0.010881623893575143,7
15.862643773962327,-0.02598446472802328,7
15.872645440906819,0.005523332359489475,7
15.882647107851309,-0.02276572528603813,7
15.8926487747958,-0.011253216257604406,7
15.90265044174029,-0.05410204430074207,7
15.912652108684782,-0.06708958770628037,7
15.922653775629271,-0.06746473835118608,7
15.932655442573763,-0.09571452849034515,7
15.942657109518253,-0.1216790077871174,7
15.952658776462744,-0.15815735387975385,7
15.962660443407236,-0.1798113783315441,7
15.972662110351726,-0.23279854971100092,7
15.982663777296217,-0.276931069456199,7
15.992665444240707,-0.3265778635697541,7
16.002667111185197,-0.35630659864084074,7
16.01266877812969,-0.400333479192833,7
16.02267044507418,-0.4707372024520112,7
16.03267211201867,-0.5170955388611377,7
16.04267377896316,-0.5399745909265372,7
16.052675445907653,-0.5848362236533649,7
16.062677112852143,-0.6287935615626205,7
16.072678779796632,-0.6736119168423019,7
16.082680446741126,-0.6950455642303724,7
16.092682113685616,-0.7222017450016287,7
16.102683780630105,-0.7455862523315051,7
16.112685447574595,-0.7772827071265666,7
16.12268711451909,-0.786002121393679,7
16.132688781463578,-0.7788512023116148,7
16.142690448408068,-0.7704096906309308,7
16.152692115352558,-0.7561219491781243,7
16.16269378229705,-0.710503273587337,7
16.17269544924154,-0.7103996879067788,7
16.18269711618603,-0.6719430530918369,7
16.192698783130524,-0.6286906795691907,7
16.202700450075014,-0.5698921688661497,7
16.212702117019504,-0.5135182951243177,7
16.222703783963993,-0.4612184796937442,7
16.232705450908487,-0.3840443631973729,7
16.242707117852976,-0.3145208005581297,7
16.252708784797466,-0.2304211427262578,7
16.262710451741956,-0.15852019773329049,7
16.27271211868645,-0.07324695095267629,7
16.28271378563094,0.025201750081734607,7
16.29271545257543,0.10940281268761959,7
16.302717119519922,0.17852817088674885,7
16.312718786464412,0.28193974223586454,7
16.322720453408902,0.35492362693101265,7
16.33272212035339,0.4151495499592701,7
16.342723787297885,0.467493342557593,7
16.352725454242375,0.5369693876555517,7
16.362727121186865,0.5933988345049309,7
16.372728788131354,0.6239035229559691,7
16.382730455075848,0.6737312868569991,7
16.392732122020337,0.7208980264094142,7
16.402733788964827,0.7372976002559906,7
16.41273545590932,0.7550846739064145,7
16.42273712285381,0.769865713789825,7
16.4327387897983,0.7645663315551334,7
16.44274045674279,0.77986180259297,7
16.452742123687283,0.7544963541217518,7
16.462743790631773,0.7556622309644413,7
16.472745457576263,0.7044906087786709,7
16.482747124520753,0.675466430014082,7
16.492748791465246,0.6634493290879891,7
16.502750458409736,0.6216001734736097,7
16.512752125354226,0.5712817539126906,7
16.522753792298715,0.5219311363856242,7
16.53275545924321,0.4978247780273321,7
16.5427571261877,0.4317745422979705,7
16.55275879313219,0.3711823232940176,7
16.56276046007668,0.34073726230310264,7
16.57276212702117,0.2914978041849151,7
16.58276379396566,0.27696686089955874,7
16.59276546091015,0.20905609475033193,7
16.602767127854644,0.18550090173273995,7
16.612768794799134,0.1465777753583612,7
16.622770461743624,0.11951015043878227,7
16.632772128688114,0.09808078458765576,7
16.642773795632607,0.05793075124770708,7
16.652775462577097,0.053999930654045056,7
16.662777129521587,0.03767809136815418,7
16.67277879646608,0.0192363408579141,7
16.68278046341057,0.007410918652770857,7
16.69278213035506,-0.0005502968894412546,7
16.70278379729955,0.0015705625983772921,7
16.712785464244043,0.0011250780225992801,7
16.722787131188532,-0.009117578596240832,7
16.732788798133022,0.012490613417550764,7
16.742790465077512,-0.00421661951641419,7
16.752792132022005,0.0011288149940855499,7
16.762793798966495,-0.028783529996189113,7
16.772795465910985,-0.0007049705753162166,7
16.782797132855478,-0.0181408366177759,7
16.792798799799968,-0.02080459682631887,7
16.802800466744458,-0.016420108862254604,7
16.812802133688947,-0.04327187662561869,7
16.82280380063344,-0.07012639626676939,7
16.83280546757793,-0.08670915311522541,7
16.84280713452242,-0.13365179959815093,7
16.85280880146691,-0.13475465087518945,7
16.862810468411404,-0.18507929914230778,7
16.872812135355893,-0.23634617402378544,7
16.882813802300383,-0.24414456820037095,7
16.892815469244876,-0.305968649023084,7
16.902817136189366,-0.33640289819017233,7
16.912818803133856,-0.4036819351673044,7
16.922820470078346,-0.4256099887372098,7
16.93282213702284,-0.4937248166645417,7
16.94282380396733,-0.5317803069551248,7
16.95282547091182,-0.5815159114502008,7
16.96282713785631,-0.6208651009818165,7
16.972828804800802,-0.649961367120439,7
16.98283047174529,-0.6920623199285847,7
16.99283213868978,-0.7266786605293613,7
17.002833805634275,-0.7525408608195566,7
17.012835472578764,-0.7760596105617303,7
17.022837139523254,-0.760225459261763,7
17.032838806467744,-0.7889365354638412,7
17.042840473412237,-0.7601597692774258,7
17.052842140356727,-0.7708261108609205,7
17.062843807301217,-0.7526110813588716,7
17.072845474245707,-0.7294041883537054,7
17.0828471411902,-0.6898019112644997,7
17.09284880813469,-0.6416822491176859,7
17.10285047507918,-0.5876334393086404,7
17.112852142023673,-0.5492318519536282,7
17.122853808968163,-0.4802719396227235,7
17.132855475912653,-0.4098276061099629,7
17.142857142857142,-0.3337805875607595,7
17.152858809801636,-0.2532737231420928,7
17.162860476746125,-0.20048929481458677,7
17.172862143690615,-0.10692433936308832,7
17.182863810635105,-0.021663516219354285,7
17.1928654775796,0.06606750817540939,7
17.202867144524088,0.13368516998643526,7
17.212868811468578,0.23251790702623593,7
17.222870478413068,0.29697946791474694,7
17.23287214535756,0.37995073564095583,7
17.24287381230205,0.447145881173822,7
17.25287547924654,0.5114520720984015,7
17.262877146191034,0.5677201581272848,7
17.272878813135524,0.6249034434013606,7
17.282880480080014,0.6730724373851037,7
17.292882147024503,0.7020136261327943,7
17.302883813968997,0.7313909573459226,7
17.312885480913486,0.7525990740157221,7
17.322887147857976,0.7764593782890672,7
17.332888814802466,0.7747728088959075,7
17.34289048174696,0.7900946321044606,7
17.35289214869145,0.7627453729426987,7
17.36289381563594,0.7320703425860691,7
17.372895482580432,0.7210467786314934,7
17.382897149524922,0.6996064719137504,7
17.392898816469412,0.668931352593341,7
17.4029004834139,0.6265310877956844,7
17.412902150358395,0.5833014390008224,7
17.422903817302885,0.556309989453756,7
17.432905484247375,0.5021662027663657,7
17.442907151191864,0.4453620170919614,7
17.452908818136358,0.4269848702736827,7
17.462910485080847,0.3700271900805128,7
17.472912152025337,0.3119714431278612,7
17.48291381896983,0.2938501569879068,7
17.49291548591432,0.2648349561014677,7
17.50291715285881,0.20021854094837352,7
17.5129188198033,0.15939657425732529,7
17.522920486747793,0.12548888509213757,7
17.532922153692283,0.10289803984729351,7
17.542923820636773,0.05618192510864909,7
17.552925487581263,0.05651503165397389,7
17.562927154525756,0.039275257601201354,7
17.572928821470246,0.024672210451007526,7
17.582930488414735,0.003830771926541819,7
17.59293215535923,0.016497192911371642,7
17.60293382230372,0.0003477937974560451,7
17.61293548924821,0.006672712927511848,7
17.622937156192698,0.006243660519139365,7
17.63293882313719,0.009933740742684513,7
17.64294049008168,-0.003468764860556071,7
17.65294215702617,0.014460622922159933,7
17.66294382397066,-0.011004168763373786,7
17.672945490915154,-0.008255462811144677,7
17.682947157859644,0.011372913308271618,7
17.692948824804134,0.0005848659985115898,7
17.702950491748627,-0.008967979728075687,7
17.712952158693117,-0.020541150071600053,7
17.722953825637607,-0.06996965335224403,7
17.732955492582096,-0.0725649314589377,7
17.74295715952659,-0.10512526316600455,7
17.75295882647108,-0.13405595475041798,7
17.76296049341557,-0.15557595641838365,7
17.77296216036006,-0.19457967080671448,7
17.782963827304552,-0.22847021325703631,7
17.792965494249042,-0.2816837386713908,7
17.802967161193532,-0.33119927959473033,7
17.812968828138025,-0.3612696673058253,7
17.822970495082515,-0.4258980144259804,7
17.832972162027005,-0.45364992639656404,7
17.842973828971495,-0.5117352647725582,7
17.852975495915988,-0.562976894867007,7
17.862977162860478,-0.5985257114116674,7
17.872978829804968,-0.6219489845965583,7
17.882980496749457,-0.6765119715593759,7
17.89298216369395,-0.7029039762008171,7
17.90298383063844,-0.7228113644411812,7
17.91298549758293,-0.7535024063536585,7
17.92298716452742,-0.7806223524735404,7
17.932988831471913,-0.7864088786852063,7
17.942990498416403,-0.785613760527427,7
17.952992165360893,-0.7868183071440052,7
17.962993832305386,-0.7466303253803066,7
17.972995499249876,-0.7356429851089296,7
17.982997166194366,-0.6968312784381057,7
17.992998833138856,-0.6742683828938653,7
18.00300050008335,-0.6223706026142526,7
18.01300216702784,-0.5588659725304969,7
18.02300383397233,-0.49432299634065047,7
18.03300550091682,-0.4287700488459503,7
18.04300716786131,-0.36742998498515705,7
18.0530088348058,-0.28403654396088046,7
18.06301050175029,-0.2151191918605661,7
18.073012168694785,-0.12891762260726072,7
18.083013835639274,-0.03934635899584324,7
18.093015502583764,0.036559151013165515,7
18.103017169528254,0.10160551214579913,7
18.113018836472747,0.17940215699510811,7
18.123020503417237,0.2651235968569613,7
18.133022170361727,0.33841073201034083,7
18.143023837306217,0.4186495297009941,7
18.15302550425071,0.486623301654354,7
18.1630271711952,0.5504177859155135,7
18.17302883813969,0.6282120745991548,7
18.183030505084183,0.639372274624884,7
18.193032172028673,0.695207195783605,7
18.203033838973163,0.7155024443757054,7
18.213035505917652,0.7521869760289269,7
18.223037172862146,0.7502875804804245,7
18.233038839806635,0.7739198043894195,7
18.243040506751125,0.78524087719806,7
18.253042173695615,0.7794690805185273,7
18.26304384064011,0.769617013095297,7
18.273045507584598,0.747963744136895,7
18.283047174529088,0.7064890450972471,7
18.29304884147358,0.6582565202844237,7
18.30305050841807,0.6471008692445417,7
18.31305217536256,0.6040903234161554,7
18.32305384230705,0.5743888304677673,7
18.333055509251544,0.5254275938624186,7
18.343057176196034,0.4784214982669702,7
18.353058843140523,0.4382900556938463,7
18.363060510085013,0.3781067187927104,7
18.373062177029507,0.34525229096591625,7
18.383063843973996,0.2933813651294955,7
18.393065510918486,0.255222525,7
18.40306717786298,0.20488612391661865,7
18.41306884480747,0.17138320074892255,7
18.42307051175196,0.1340549221572363,7
18.43307217869645,0.1125635859328108,7
18.443073845640942,0.06098866510615464,7
18.453075512585432,0.06358030415330311,7
18.463077179529922,0.04632895175188704,7
18.47307884647441,0.03225377229543943,7
18.483080513418905,0.008139485466821524,7
18.493082180363395,0.013450990038931429,7
18.503083847307884,-0.01313590650437518,7
18.513085514252378,0.008219762271260514,7
18.523087181196868,-0.006393236758191344,7
18.533088848141357,-0.008126963228753312,7
18.543090515085847,0.0035895859501075557,7
18.55309218203034,-0.02505839061992414,7
18.56309384897483,-0.004110594314088495,7
18.57309551591932,-0.019681156729579437,7
18.58309718286381,-0.020649962816631708,7
18.593098849808303,-0.02954709193562514,7
18.603100516752793,-0.015232228707564755,7
18.613102183697283,-0.034165716574640674,7
18.623103850641776,-0.05284802001141708,7
18.633105517586266,-0.08579924923984752,7
18.643107184530756,-0.1026968223615956,7
18.653108851475245,-0.11799332313841315,7
18.66311051841974,-0.1516840570268359,7
18.67311218536423,-0.17822788283783544,7
18.68311385230872,-0.21688775078357844,7
18.693115519253208,-0.25872930121831705,7
18.7031171861977,-0.3135796288162664,7
18.71311885314219,-0.3358348855318288,7
18.72312052008668,-0.37916192846192215,7
18.73312218703117,-0.4484744465038001,7
18.743123853975664,-0.5103730635512317,7
18.753125520920154,-0.5346157943871298,7
18.763127187864644,-0.5857051745316411,7
18.773128854809137,-0.6198952719000644,7
18.783130521753627,-0.6625707107404837,7
18.793132188698117,-0.691925237132457,7
18.803133855642606,-0.7391941583004642,7
18.8131355225871,-0.7426614856020574,7
18.82313718953159,-0.7420184622335699,7
18.83313885647608,-0.776711365312688,7
18.84314052342057,-0.7746948442806652,7
18.853142190365062,-0.7701408526756504,7
18.863143857309552,-0.7685300452570502,7
18.873145524254042,-0.7386551430839732,7
18.883147191198535,-0.7117459237280449,7
18.893148858143025,-0.691811293776239,7
18.903150525087515,-0.6409392126076007,7
18.913152192032005,-0.5829539977587711,7
18.923153858976498,-0.5430371615498704,7
18.933155525920988,-0.4821568578821108,7
18.943157192865478,-0.4018476339559149,7
18.953158859809967,-0.33112915286369315,7
18.96316052675446,-0.2532572102605184,7
18.97316219369895,-0.18624650392082936,7
18.98316386064344,-0.10036492432430491,7
18.993165527587934,0.006357770791069427,7
19.003167194532423,0.08519909757618967,7
19.013168861476913,0.1572141760429878,7
19.023170528421403,0.23564186023957798,7
19.033172195365896,0.31896391424963194,7
19.043173862310386,0.3967445984758087,7
19.053175529254876,0.4670038440553438,7
19.063177196199366,0.5264238929396966,7
19.07317886314386,0.5858226425435779,7
19.08318053008835,0.6373505819786554,7
19.09318219703284,0.6703956250694201,7
19.103183863977332,0.6984376051954384,7
19.11318553092182,0.7419408563022003,7
19.12318719786631,0.7770809820770146,7
19.1331888648108,0.7688006558911107,7
19.143190531755295,0.791177173542278,7
19.153192198699784,0.7641823611524797,7
19.163193865644274,0.7586589029229672,7
19.173195532588764,0.736929938576173,7
19.183197199533257,0.7165998289441085,7
19.193198866477747,0.6842011925274691,7
19.203200533422237,0.6644545283768369,7
19.21320220036673,0.620477520422401,7
19.22320386731122,0.5886688154655053,7
19.23320553425571,0.5470783620695984,7
19.2432072012002,0.4935744419049951,7
19.253208868144693,0.4475096357798247,7
19.263210535089183,0.395252890053692,7
19.273212202033672,0.36023910607586884,7
19.283213868978162,0.3375784594144845,7
19.293215535922656,0.27774544648873906,7
19.303217202867145,0.23092170663782935,7
19.313218869811635,0.20241070737501404,7
19.32322053675613,0.16104063970566782,7
19.33322220370062,0.11658759087296316,7
19.343223870645108,0.10408298980323483,7
19.353225537589598,0.07437649784767755,7
19.36322720453409,0.06447526828271605,7
19.37322887147858,0.030052520596413265,7
19.38323053842307,0.04273319481141381,7
19.39323220536756,0.005486453350769959,7
19.403233872312054,0.010076118599567488,7
19.413235539256544,0.017760223140833552,7
19.423237206201033,-0.004764352352604226,7
19.433238873145523,-0.003789079206414034,7
19.443240540090017,0.0017909232159655929,7
19.453242207034506,-0.011646016425384624,7
19.463243873978996,-0.014122175490035693,7
19.47324554092349,-0.012028977262919028,7
19.48324720786798,-0.01181080405342292,7
19.49324887481247,-0.01301958566493255,7
19.50325054175696,-0.006344213211454603,7
19.513252208701452,-0.045238020423268216,7
19.523253875645942,-0.05340296348388122,7
19.53325554259043,-0.05219750869500506,7
19.54325720953492,-0.09726091451116388,7
19.553258876479415,-0.11218049228692756,7
19.563260543423905,-0.1369109304879511,7
19.573262210368394,-0.16521352214890225,7
19.583263877312888,-0.21632649665163456,7
19.593265544257378,-0.2451128460758773,7
19.603267211201867,-0.28213675597231336,7
19.613268878146357,-0.3414266089371445,7
19.62327054509085,-0.36250864283823087,7
19.63327221203534,-0.4222845478037699,7
19.64327387897983,-0.4666694470476681,7
19.65327554592432,-0.5138524130330877,7
19.663277212868813,-0.5608408205967536,7
19.673278879813303,-0.6057968265941198,7
19.683280546757793,-0.6428783815531504,7
19.693282213702286,-0.686965506596587,7
19.703283880646776,-0.7138635793262446,7
19.713285547591266,-0.7106208564186277,7
19.723287214535755,-0.7565007974325237,7
19.73328888148025,-0.7747486893909196,7
19.74329054842474,-0.7761516224686439,7
19.75329221536923,-0.7731476647340523,7
19.763293882313718,-0.7631905463792278,7
19.77329554925821,-0.7653833421729744,7
19.7832972162027,-0.7237430444392611,7
19.79329888314719,-0.7032893430478611,7
19.803300550091684,-0.6390505020022783,7
19.813302217036174,-0.6068133082148984,7
19.823303883980664,-0.5458576211468198,7
19.833305550925154,-0.49813840249988095,7
19.843307217869647,-0.41976310474503703,7
19.853308884814137,-0.37470976237233333,7
19.863310551758627,-0.29541307159648433,7
19.873312218703116,-0.20681983168952725,7
19.88331388564761,-0.11281776881310823,7
19.8933155525921,-0.029150772545536094,7
19.90331721953659,0.04211562042157751,7
19.913318886481083,0.13845566910762366,7
19.923320553425572,0.20751003191071613,7
19.933322220370062,0.2823369162785747,7
19.943323887314552,0.3527595953501273,7
19.953325554259045,0.4463324334228425,7
19.963327221203535,0.5126138048992042,7
19.973328888148025,0.5520583193189476,7
19.983330555092515,0.5922275241681637,7
19.993332222037008,0.6464903072790396,7
20.003333888981498,0.6901962326255618,7
20.013335555925988,0.7206106557797741,7
20.02333722287048,0.756021840659802,7
20.03333888981497,0.7869826433745998,7
20.04334055675946,0.7740798169749977,7
20.05334222370395,0.761384164415857,7
20.063343890648444,0.7845975465763602,7
20.073345557592933,0.7502850917169025,7
20.083347224537423,0.7317402945698438,7
20.093348891481913,0.6962004638461202,7
20.103350558426406,0.6851378471764408,7
20.113352225370896,0.6375504874610228,7
20.123353892315386,0.6023142876468566,7
20.133355559259876,0.5506784139557285,7
20.14335722620437,0.4978812748378835,7
20.15335889314886,0.4819488055621644,7
20.16336056009335,0.42287965539764844,7
20.173362227037842,0.3762331771270108,7
20.18336389398233,0.3359776613843181,7
20.19336556092682,0.28364580606479634,7
20.20336722787131,0.25418530747225965,7
20.213368894815805,0.20651562642168828,7
20.223370561760294,0.16782845754622844,7
20.233372228704784,0.13362477144878054,7
20.243373895649274,0.11472945450047393,7
20.253375562593767,0.08063390319363178,7
20.263377229538257,0.06695104811274277,7
20.273378896482747,0.03450673483723588,7
20.28338056342724,0.03368268305648429,7
20.29338223037173,0.026678745586736434,7
20.30338389731622,0.010424819091628075,7
20.31338556426071,-0.013593852013633556,7
20.323387231205203,-0.010391369762636297,7
20.333388898149693,-0.0004414716735559439,7
20.343390565094182,-0.0033501691124698633,7
20.353392232038672,-0.009790206820444961,7
20.363393898983166,0.014292715320629902,7
20.373395565927655,0.015073444049142376,7
20.383397232872145,-0.002947927356000995,7
20.39339889981664,-0.008379097833292937,7
20.40340056676113,-0.020100979992763564,7
20.413402233705618,-0.03915366977906616,7
20.423403900650108,-0.040304109771455585,7
20.4334055675946,-0.04080807305254547,7
20.44340723453909,-0.06513574816841806,7
20.45340890148358,-0.1128844665103641,7
20.46341056842807,-0.14371587541174097,7
20.473412235372564,-0.16718963087988029,7
20.483413902317054,-0.19236088536963292,7
20.493415569261543,-0.2307044890741842,7
20.503417236206037,-0.26237589906829556,7
20.513418903150527,-0.30811398856234196,7
20.523420570095016,-0.35896039624944054,7
20.533422237039506,-0.40791070667168544,7
20.543423903984,-0.4519682704912878,7
20.55342557092849,-0.4887345861431374,7
20.56342723787298,-0.5586813715647563,7
20.57342890481747,-0.5764687205493788,7
20.583430571761962,-0.6325119061482138,7
20.593432238706452,-0.6970870066426821,7
20.60343390565094,-0.6998736239234712,7
20.613435572595435,-0.7281670163790556,7
20.623437239539925,-0.7577026046303468,7
20.633438906484415,-0.742792964750493,7
20.643440573428904,-0.7921924897219147,7
20.653442240373398,-0.7760364313426521,7
20.663443907317887,-0.7694104306793036,7
20.673445574262377,-0.7570110886057453,7
20.683447241206867,-0.7353549779198784,7
20.69344890815136,-0.7273663629107683,7
20.70345057509585,-0.6631261309283535,7
20.71345224204034,-0.6413710846449439,7
20.723453908984833,-0.5861640510727942,7
20.733455575929323,-0.5034764898899885,7
20.743457242873813,-0.45629428603396016,7
20.753458909818303,-0.3907643102296272,7
20.763460576762796,-0.33369343442459576,7
20.773462243707286,-0.23115617642730538,7
20.783463910651776,-0.14048656282857505,7
20.793465577596265,-0.09257770711103308,7
20.80346724454076,0.0027732869124628408,7
20.81346891148525,0.06667760941721931,7
20.82347057842974,0.16580780774487697,7
20.83347224537423,0.238926151534154,7
20.84347391231872,0.3126421167442916,7
20.85347557926321,0.3829935785670283,7
20.8634772462077,0.46667062026433365,7
20.873478913152194,0.5228784299237847,7
20.883480580096684,0.5904730566905223,7
20.893482247041174,0.641594819116428,7
20.903483913985664,0.6861786814876107,7
20.913485580930157,0.7036901683084049,7
20.923487247874647,0.7354166137259995,7
20.933488914819137,0.7696443816487206,7
20.943490581763626,0.7699919876764529,7
20.95349224870812,0.7832193287100682,7
20.96349391565261,0.7947668532281139,7
20.9734955825971,0.7722466217326772,7
20.983497249541593,0.753655959515771,7
20.993498916486082,0.7281696392766748,7
21.003500583430572,0.68537989445165,7
21.013502250375062,0.6488022427844621,7
21.023503917319555,0.6142688717356355,7
21.033505584264045,0.5859554903604417,7
21.043507251208535,0.5318359569923474,7
21.053508918153025,0.49323961140427347,7
21.063510585097518,0.4587028819838418,7
21.073512252042008,0.41043996832636415,7
21.083513918986498,0.35204035802053885,7
21.09351558593099,0.3100315656431583,7
21.10351725287548,0.26387236819037835,7
21.11351891981997,0.2195120959339348,7
21.12352058676446,0.1828873523761002,7
21.133522253708954,0.1353182740995782,7
21.143523920653443,0.10425676705318039,7
21.153525587597933,0.09351065782674747,7
21.163527254542423,0.08736710402515353,7
21.173528921486916,0.029707383943089735,7
21.183530588431406,0.02892245235067937,7
21.193532255375896,0.02083437942664281,7
21.20353392232039,0.030082513420769657,7
21.21353558926488,0.023674172300210766,7
21.22353725620937,-0.011650416683982055,7
21.23353892315386,-0.011385913087607788,7
21.243540590098352,0.004415440620196036,7
21.25354225704284,0.004769650920654034,7
21.26354392398733,-0.0029426595214221392,7
21.27354559093182,-0.003647307323159542,7
21.283547257876315,0.011389556400853942,7
21.293548924820804,-0.02221709249245699,7
21.303550591765294,-0.007229797786298935,7
21.313552258709787,-0.010525127141203766,7
21.323553925654277,-0.04017903469006935,7
21.333555592598767,-0.04351589892272834,7
21.343557259543257,-0.057575644206002266,7
21.35355892648775,-0.0845162803276679,7
21.36356059343224,-0.10850600276473267,7
21.37356226037673,-0.1330094223292866,7
21.38356392732122,-0.17150287685126028,7
21.393565594265713,-0.2303976052514199,7
21.403567261210203,-0.24789666050974474,7
21.413568928154692,-0.2962255229798133,7
21.423570595099186,-0.32909561125506676,7
21.433572262043675,-0.37901614063609257,7
21.443573928988165,-0.4285459974246968,7
21.453575595932655,-0.4872793899482268,7
21.46357726287715,-0.518269014576367,7
21.473578929821638,-0.5669342030108427,7
21.483580596766128,-0.6151220846675906,7
21.493582263710618,-0.6416819027558617,7
21.50358393065511,-0.6882749937501066,7
21.5135855975996,-0.7125457841710382,7
21.52358726454409,-0.7246913487825202,7
21.533588931488584,-0.7621457423456612,7
21.543590598433074,-0.7804796939649773,7
21.553592265377564,-0.7951479019612816,7
21.563593932322053,-0.7843032073438889,7
21.573595599266547,-0.7473844244255999,7
21.583597266211036,-0.7473532970258105,7
21.593598933155526,-0.7405849659575056,7
21.603600600100016,-0.6664042633573464,7
21.61360226704451,-0.6488416080168908,7
21.623603933989,-0.5891931679778432,7
21.63360560093349,-0.5480886607951149,7
21.64360726787798,-0.4938405543397985,7
21.653608934822472,-0.4351497226268001,7
21.663610601766962,-0.3577372535923503,7
21.67361226871145,-0.2866311433997621,7
21.683613935655945,-0.19760720802999066,7
21.693615602600435,-0.12095262650877256,7
21.703617269544925,-0.03210722908524118,7
21.713618936489414,0.061308803295552265,7
21.723620603433908,0.1274687683725658,7
21.733622270378397,0.1774049583879573,7
21.743623937322887,0.303389280672827,7
21.753625604267377,0.34906041446613534,7
21.76362727121187,0.4293554693312511,7
21.77362893815636,0.4964937294708349,7
21.78363060510085,0.5681745096414333,7
21.793632272045343,0.6208141847894488,7
21.803633938989833,0.6622504319548622,7
21.813635605934323,0.6919809566344151,7
21.823637272878813,0.7321266604919483,7
21.833638939823306,0.7580432939515829,7
21.843640606767796,0.7601673546057933,7
21.853642273712286,0.7744837966139533,7
21.863643940656775,0.766320471668977,7
21.87364560760127,0.7648364735786627,7
21.88364727454576,0.7531147794183651,7
21.893648941490248,0.724301429041951,7
21.90365060843474,0.7189277206314642,7
21.91365227537923,0.6642806531284329,7
21.92365394232372,0.6480889558346588,7
21.93365560926821,0.6146857522267395,7
21.943657276212704,0.5571940547199433,7
21.953658943157194,0.5048007466608485,7
21.963660610101684,0.4576496626095656,7
21.973662277046174,0.4065542869308905,7
21.983663943990667,0.3650954065645324,7
21.993665610935157,0.3187059095359852,7
22.003667277879646,0.26333216474066146,7
22.01366894482414,0.25580054266712127,7
22.02367061176863,0.2010051049856439,7
22.03367227871312,0.1738190427462962,7
22.04367394565761,0.13280736555739062,7
22.053675612602103,0.11539663285971241,7
22.063677279546592,0.08634092267317856,7
22.073678946491082,0.04597079142983353,7
22.083680613435572,0.03440366157036867,7
22.093682280380065,0.030658577689425436,7
22.103683947324555,0.018283509871436204,7
22.113685614269045,-0.0061667401083814535,7
22.123687281213538,0.0060232743473467585,7
22.133688948158028,0.013260220544687564,7
22.143690615102518,-0.00790246040333362,7
22.153692282047007,0.028569782259462606,7
22.1636939489915,0.016967388914074087,7
22.17369561593599,0.007849051089641101,7
22.18369728288048,-0.004586992336940043,7
22.19369894982497,-0.006266419334338344,7
22.203700616769463,-0.02830509094158127,7
22.213702283713953,-0.005895383967564328,7
22.223703950658443,-0.027629834638753514,7
22.233705617602936,-0.045196944856035655,7
22.243707284547426,-0.05099134333007291,7
22.253708951491916,-0.06021394164758191,7
22.263710618436406,-0.10772995390596231,7
22.2737122853809,-0.13640565313290878,7
22.28371395232539,-0.17619592626103953,7
22.29371561926988,-0.18974630110453838,7
22.30371728621437,-0.22792187448701118,7
22.313718953158862,-0.2651504845945644,7
22.32372062010335,-0.31275749580154605,7
22.33372228704784,-0.3728301691252094,7
22.34372395399233,-0.4041125775559911,7
22.353725620936824,-0.4737680424262227,7
22.363727287881314,-0.49996996022672385,7
22.373728954825804,-0.5339465771147104,7
22.383730621770297,-0.5818959704964305,7
22.393732288714787,-0.6421619284509246,7
22.403733955659277,-0.6647754370862904,7
22.413735622603767,-0.6958864703939577,7
22.42373728954826,-0.717148111921459,7
22.43373895649275,-0.7540787449746155,7
22.44374062343724,-0.7687175866470256,7
22.45374229038173,-0.7757475374612895,7
22.463743957326223,-0.7834131233184248,7
22.473745624270713,-0.7762868249678585,7
22.483747291215202,-0.7696659695764867,7
22.493748958159696,-0.745907589696937,7
22.503750625104185,-0.7129442945043033,7
22.513752292048675,-0.6694778697175567,7
22.523753958993165,-0.6182749893327333,7
22.53375562593766,-0.5708416030726479,7
22.543757292882148,-0.5173472433425492,7
22.553758959826638,-0.45780988166458864,7
22.563760626771128,-0.39988252273334135,7
22.57376229371562,-0.30908527162680116,7
22.58376396066011,-0.22909937175181805,7
22.5937656276046,-0.16279733175298122,7
22.603767294549094,-0.05389363028784426,7
22.613768961493584,0.005744043186818553,7
22.623770628438074,0.09956601882466717,7
22.633772295382563,0.17149406126436273,7
22.643773962327057,0.2691508967552768,7
22.653775629271546,0.3221838256684043,7
22.663777296216036,0.4216964351123988,7
22.673778963160526,0.4792534241775099,7
22.68378063010502,0.54093555915425,7
22.69378229704951,0.5801397708726695,7
22.703783963994,0.6414242214455035,7
22.713785630938492,0.6758275684175231,7
22.723787297882982,0.7140007198398298,7
22.733788964827472,0.7512889370042756,7
22.74379063177196,0.7563419435729973,7
22.753792298716455,0.7704166119491442,7
22.763793965660945,0.7706413940789602,7
22.773795632605434,0.7751174766588231,7
22.783797299549924,0.751828632311918,7
22.793798966494418,0.7433670921884691,7
22.803800633438907,0.7111852345758071,7
22.813802300383397,0.6690435577205596,7
22.82380396732789,0.6624573332089684,7
22.83380563427238,0.6151312216403746,7
22.84380730121687,0.5824348008859832,7
22.85380896816136,0.5359016622952729,7
22.863810635105853,0.4973613600850522,7
22.873812302050343,0.4346909253086312,7
22.883813968994833,0.38099119983296614,7
22.893815635939323,0.35126326237844696,7
22.903817302883816,0.2864977591642768,7
22.913818969828306,0.25129218746748794,7
22.923820636772795,0.22354264703425586,7
22.93382230371729,0.15699108159243,7
22.94382397066178,0.14591527513677202,7
22.95382563760627,0.10750243187904451,7
22.963827304550758,0.08117703707492605,7
22.97382897149525,0.06709425461298543,7
22.98383063843974,0.044802876939017376,7
22.99383230538423,0.0414062502882567,7
23.00383397232872,0.038551682516696224,7
23.013835639273214,0.0047256377418019475,7
23.023837306217704,0.003778024549436863,7
23.033838973162194,-0.0006800621256488303,7
23.043840640106687,-0.010899633692741918,7
23.053842307051177,0.0016081224188249975,7
23.063843973995667,-0.0020229274128630804,7
23.073845640940156,-0.012521994157220747,7
23.08384730788465,-0.0012105120467864998,7
23.09384897482914,-0.005687149617570062,7
23.10385064177363,0.013494867732290451,7
23.11385230871812,-0.014189363269637257,7
23.123853975662612,-0.018864685017228433,7
23.133855642607102,-0.027967867936568844,7
23.143857309551592,-0.04574140968284869,7
23.153858976496082,-0.04270155656451201,7
23.163860643440575,-0.10591243999156656,7
23.173862310385065,-0.10414910546683388,7
23.183863977329555,-0.1401460029936231,7
23.193865644274048,-0.20575661724283997,7
23.203867311218538,-0.21710057186653803,7
23.213868978163028,-0.260183473662887,7
23.223870645107517,-0.294057683635238,7
23.23387231205201,-0.3497252562220561,7
23.2438739789965,-0.3808427618375272,7
23.25387564594099,-0.4337523941498463,7
23.26387731288548,-0.4881419930805316,7
23.273878979829973,-0.5245602599348741,7
23.283880646774463,-0.5662318485811844,7
23.293882313718953,-0.6274259322665225,7
23.303883980663446,-0.6559094119041172,7
23.313885647607936,-0.6891139061271766,7
23.323887314552426,-0.7197879192822144,7
23.333888981496916,-0.7330129534315183,7
23.34389064844141,-0.7435104451156285,7
23.3538923153859,-0.7746208082504549,7
23.36389398233039,-0.7835646759479362,7
23.37389564927488,-0.7660794969486256,7
23.38389731621937,-0.7804497090881357,7
23.39389898316386,-0.7420631693612766,7
23.40390065010835,-0.7108508643786672,7
23.413902317052845,-0.6836545811596771,7
23.423903983997334,-0.6437927140681119,7
23.433905650941824,-0.5951488068467499,7
23.443907317886314,-0.5587540420418493,7
23.453908984830807,-0.48251021909771197,7
23.463910651775297,-0.41691682272652897,7
23.473912318719787,-0.3380464609943146,7
23.483913985664277,-0.2513889215969325,7
23.49391565260877,-0.17461897701313076,7
23.50391731955326,-0.10086285365646255,7
23.51391898649775,-0.020031295094252104,7
23.523920653442243,0.07088635744200848,7
23.533922320386733,0.13344829994561724,7
23.543923987331222,0.21862958371078015,7
23.553925654275712,0.3108035204964123,7
23.563927321220206,0.36816523561483927,7
23.573928988164695,0.42301135201716217,7
23.583930655109185,0.5000489709866539,7
23.593932322053675,0.5763813145233133,7
23.60393398899817,0.6226960795105616,7
23.613935655942658,0.6586207672614671,7
23.623937322887148,0.7198446965218571,7
23.63393898983164,0.7233277039105158,7
23.64394065677613,0.7701886892822902,7
23.65394232372062,0.7649190988433734,7
23.66394399066511,0.7881240700744466,7
23.673945657609604,0.7676295107435959,7
23.683947324554094,0.7732112355808222,7
23.693948991498583,0.7501798026975511,7
23.703950658443073,0.719683916889686,7
23.713952325387567,0.6954943386602682,7
23.723953992332056,0.6548747985448417,7
23.733955659276546,0.6479488010475132,7
23.74395732622104,0.604665780717606,7
23.75395899316553,0.5582382918873534,7
23.76396066011002,0.5186539502147931,7
23.77396232705451,0.4699183422930664,7
23.783963993999002,0.4059578226011368,7
23.793965660943492,0.3536019638957856,7
23.80396732788798,0.32038935648832384,7
23.81396899483247,0.27634117571381367,7
23.823970661776965,0.2534461129825555,7
23.833972328721455,0.19908699266846638,7
23.843973995665944,0.15614758884610544,7
23.853975662610434,0.1307670483244304,7
23.863977329554928,0.09402450761293647,7
23.873978996499417,0.0776845389942333,7
23.883980663443907,0.04570061256775264,7
23.8939823303884,0.04700989801292923,7
23.90398399733289,0.02596560984762642,7
23.91398566427738,0.015436997878378635,7
23.92398733122187,-0.007971187138398641,7
23.933988998166363,0.0011552839436217571,7
23.943990665110853,-0.0038545599361604595,7
23.953992332055343,-0.008560304240162535,7
23.963993998999833,-0.016936907055897444,7
23.973995665944326,-0.003192459092368514,7
23.983997332888816,0.00493493909821057,7
23.993998999833305,0.004615679396268381,7
24.0040006667778,-0.00029995281009749606,7
24.01400233372229,0.003017644380084979,7
24.02400400066678,-0.0018913426499265196,7
24.034005667611268,-0.017640575151915118,7
24.04400733455576,-0.03090366473400582,7
24.05400900150025,-0.06954836178430412,7
24.06401066844474,-0.08483757759937093,7
24.07401233538923,-0.10156639531803938,7
24.084014002333724,-0.11685188267187964,7
24.094015669278214,-0.160978205621616,7
24.104017336222704,-0.2057021476919261,7
24.114019003167197,-0.2291420470015655,7
24.124020670111687,-0.2610801439555866,7
24.134022337056177,-0.3185341506719955,7
24.144024004000666,-0.3831194432387793,7
24.15402567094516,-0.4121229369769395,7
24.16402733788965,-0.4438393060401882,7
24.17402900483414,-0.5129817614759862,7
24.18403067177863,-0.56399815183932,7
24.194032338723122,-0.5790256088041312,7
24.204034005667612,-0.6513177475354962,7
24.214035672612102,-0.6679666452986165,7
24.224037339556595,-0.7120096631697274,7
24.234039006501085,-0.7323528452114731,7
24.244040673445575,-0.743654914551403,7
24.254042340390065,-0.7901171897368551,7
24.264044007334558,-0.7836127640210958,7
24.274045674279048,-0.7953962156035904,7
24.284047341223538,-0.7781788731667325,7
24.294049008168027,-0.7591481931554067,7
24.30405067511252,-0.7281601061859714,7
24.31405234205701,-0.6981339493662595,7
24.3240540090015,-0.6635420453295509,7
24.334055675945994,-0.6145975432131279,7
24.344057342890483,-0.5657937206819631,7
24.354059009834973,-0.5037246581472863,7
24.364060676779463,-0.4481515392406753,7
24.374062343723956,-0.3715769937235442,7
24.384064010668446,-0.3205272762845167,7
24.394065677612936,-0.21271751516867268,7
24.404067344557426,-0.1609946329821655,7
24.41406901150192,-0.04509556302881732,7
24.42407067844641,0.02507393108631159,7
24.4340723453909,0.1150663603993771,7
24.444074012335392,0.18411685346929405,7
24.45407567927988,0.25068058595093134,7
24.46407734622437,0.350178849307108,7
24.47407901316886,0.4302904163001969,7
24.484080680113355,0.48047969633645116,7
24.494082347057844,0.5390592076891296,7
24.504084014002334,0.5959718143587424,7
24.514085680946824,0.6378452605193242,7
24.524087347891317,0.6777102129362854,7
24.534089014835807,0.7341492882568831,7
24.544090681780297,0.7486259898343866,7
24.554092348724787,0.7630444600593277,7
24.56409401566928,0.7863150627126315,7
24.57409568261377,0.7713428495426351,7
24.58409734955826,0.7757683413048352,7
24.594099016502753,0.7630653311635273,7
24.604100683447243,0.7395147007355344,7
24.614102350391732,0.7219557833181977,7
24.624104017336222,0.6921953961766796,7
24.634105684280716,0.6543190022877794,7
24.644107351225205,0.5927644007238991,7
24.654109018169695,0.5733278939061591,7
24.664110685114185,0.5190464320913301,7
24.67411235205868,0.4786734623445525,7
24.684114019003168,0.4186350918948151,7
24.694115685947658,0.39194777703180145,7
24.70411735289215,0.3371490308407017,7
24.71411901983664,0.30095468547496795,7
24.72412068678113,0.25602047660272015,7
24.73412235372562,0.20408480982354976,7
24.744124020670114,0.17671093818768416,7
24.754125687614604,0.12895848042536487,7
24.764127354559093,0.12257797321689319,7
24.774129021503583,0.10058016078793157,7
24.784130688448077,0.07422574231518259,7
24.794132355392566,0.04422128196154204,7
24.804134022337056,0.03783485598963177,7
24.81413568928155,0.027090724366101313,7
24.82413735622604,0.006968512076363899,7
24.83413902317053,0.0021940635145524085,7
24.84414069011502,0.0024323431010754414,7
24.854142357059512,0.006017675946743021,7
24.864144024004002,0.013304429283209308,7
24.87414569094849,-0.0009076521347341406,7
24.88414735789298,-0.014543934560668959,7
24.894149024837475,0.01476528125783889,7
24.904150691781965,-0.008180473975744628,7
24.914152358726454,-0.014779134059809481,7
24.924154025670948,-0.006405255611515215,7
24.934155692615438,-0.019805315572179287,7
24.944157359559927,-0.03992778399912807,7
24.954159026504417,-0.0562787150376899,7
24.96416069344891,-0.0947871485732367,7
24.9741623603934,-0.08592008144276898,7
24.98416402733789,-0.10474170701572222,7
24.99416569428238,-0.14134964083616103,7
25.004167361226873,-0.18610738441959365,7
25.014169028171363,-0.21837366820762755,7
25.024170695115853,-0.26581798818912106,7
25.034172362060346,-0.2988195155984562,7
25.044174029004836,-0.329917338507621,7
25.054175695949326,-0.3969251871216675,7
25.064177362893815,-0.4271655425665291,7
25.07417902983831,-0.48126684783631235,7
25.0841806967828,-0.5298156657776087,7
25.09418236372729,-0.5695569985405861,7
25.104184030671778,-0.6157714081307906,7
25.11418569761627,-0.6543403501956285,7
25.12418736456076,-0.694285552152785,7
25.13418903150525,-0.733193293837372,7
25.144190698449744,-0.7550712340274508,7
25.154192365394234,-0.7779597105880055,7
25.164194032338724,-0.8101471815748126,7
25.174195699283214,-0.773159937417327,7
25.184197366227707,-0.7865765941604254,7
25.194199033172197,-0.7777605347208097,7
25.204200700116687,-0.7524289079749621,7
25.214202367061176,-0.7260043087972098,7
25.22420403400567,-0.6800445835608323,7
25.23420570095016,-0.6393866917629957,7
25.24420736789465,-0.5825346696577586,7
25.25420903483914,-0.5381752982732969,7
25.264210701783632,-0.4796230023530201,7
25.274212368728122,-0.4054646741919567,7
25.284214035672612,-0.34140359133849113,7
25.294215702617105,-0.2554723654276003,7
25.304217369561595,-0.17284081523363445,7
25.314219036506085,-0.09306904630071394,7
25.324220703450575,-0.020280698308755715,7
25.334222370395068,0.0906631205228119,7
25.344224037339558,0.15225379578994477,7
25.354225704284048,0.23153274198280555,7
25.364227371228537,0.307975166954747,7
25.37422903817303,0.3950292313896317,7
25.38423070511752,0.46562209153840717,7
25.39423237206201,0.4995309542526847,7
25.404234039006504,0.5661213747839023,7
25.414235705950993,0.6225525035050066,7
25.424237372895483,0.6668696548696269,7
25.434239039839973,0.7261201632564315,7
25.444240706784466,0.7380304351919362,7
25.454242373728956,0.7604736624520237,7
25.464244040673446,0.7854609032175436,7
25.474245707617936,0.7777383285360627,7
25.48424737456243,0.7795761813142041,7
25.49424904150692,0.7588271144719073,7
25.50425070845141,0.757319628444946,7
25.514252375395902,0.7173161939892171,7
25.52425404234039,0.7006960841603359,7
25.53425570928488,0.66095477703588,7
25.54425737622937,0.6384573377150272,7
25.554259043173865,0.5861772022565268,7
25.564260710118354,0.5562195288611295,7
25.574262377062844,0.4900721355563386,7
25.584264044007334,0.44481246439474176,7
25.594265710951827,0.4061359077120381,7
25.604267377896317,0.3685700495620439,7
25.614269044840807,0.32172934312099427,7
25.6242707117853,0.2678172957679166,7
25.63427237872979,0.21999298722220592,7
25.64427404567428,0.18612883675132047,7
25.65427571261877,0.16145967336311662,7
25.664277379563263,0.12985849159283763,7
25.674279046507753,0.09291742856320805,7
25.684280713452242,0.06765205362781981,7
25.694282380396732,0.05316514231992099,7
25.704284047341226,0.04856197107382057,7
25.714285714285715,0.048685599084222445,7
25.724287381230205,0.015724664852203533,7
25.7342890481747,0.010159141088641544,7
25.744290715119188,-0.002802944547543266,7
25.754292382063678,-0.0004987914823025169,7
25.764294049008168,0.013155070973157157,7
25.77429571595266,0.013621049228637534,7
25.78429738289715,0.01260278426497052,7
25.79429904984164,0.00022990029900097633,7
25.80430071678613,0.0021979361195615674,7
25.814302383730624,-0.020328203290376837,7
25.824304050675114,-0.03629833866007581,7
25.834305717619603,-0.023061342237340285,7
25.844307384564097,-0.02660792413985309,7
25.854309051508586,-0.055823316149393704,7
25.864310718453076,-0.05259542249008857,7
25.874312385397566,-0.09478941052001977,7
25.88431405234206,-0.11339426863512846,7
25.89431571928655,-0.14541630970766434,7
25.90431738623104,-0.17732744231526007,7
25.91431905317553,-0.19922647150754696,7
25.924320720120022,-0.2519220150637952,7
25.934322387064512,-0.2779928627686471,7
25.944324054009,-0.33076121647338685,7
25.954325720953495,-0.389677069202258,7
25.964327387897985,-0.43107308917130316,7
25.974329054842475,-0.47038729246178557,7
25.984330721786964,-0.5194242804018274,7
25.994332388731458,-0.5561211510959044,7
26.004334055675947,-0.6132498765326896,7
26.014335722620437,-0.6500969297162448,7
26.024337389564927,-0.6659256812026861,7
26.03433905650942,-0.7061779009924902,7
26.04434072345391,-0.7413420871669828,7
26.0543423903984,-0.7473113852941452,7
26.06434405734289,-0.7702180871445652,7
26.074345724287383,-0.7935357054044531,7
26.084347391231873,-0.769015254119771,7
26.094349058176363,-0.7727281031604077,7
26.104350725120856,-0.7463903101494764,7
26.114352392065346,-0.7220148271353539,7
26.124354059009836,-0.6994275672122676,7
26.134355725954325,-0.6470867177456437,7
26.14435739289882,-0.6058127963015838,7
26.15435905984331,-0.5481979337907267,7
26.1643607267878,-0.491807977724217,7
26.174362393732288,-0.4418579268454465,7
26.18436406067678,-0.34632778886401727,7
26.19436572762127,-0.29173973296029954,7
26.20436739456576,-0.21737218387365262,7
26.214369061510254,-0.13623420224595292,7
26.224370728454744,-0.04955843695263038,7
26.234372395399234,0.034980446152070015,7
26.244374062343724,0.11955191205465775,7
26.254375729288217,0.20758836352091056,7
26.264377396232707,0.28365111904345425,7
26.274379063177197,0.33862558085066624,7
26.284380730121686,0.4072248379648547,7
26.29438239706618,0.484105167234091,7
26.30438406401067,0.5746745407126189,7
26.31438573095516,0.6179653229634904,7
26.324387397899653,0.6529911805457245,7
26.334389064844142,0.6893281129458085,7
26.344390731788632,0.7167883572822827,7
26.354392398733122,0.7506242884520343,7
26.364394065677615,0.7687709179078112,7
26.374395732622105,0.7724719533751869,7
26.384397399566595,0.7775375693645511,7
26.394399066511085,0.7554989316974108,7
26.404400733455578,0.755997516069194,7
26.414402400400068,0.7453327504344381,7
26.424404067344557,0.7225874880798686,7
26.43440573428905,0.6663844718177224,7
26.44440740123354,0.6378984311756658,7
26.45440906817803,0.5982883215854027,7
26.46441073512252,0.5638051843531221,7
26.474412402067014,0.5223267305156929,7
26.484414069011503,0.44415873965387337,7
26.494415735955993,0.4140417470188529,7
26.504417402900483,0.39127858204708926,7
26.514419069844976,0.316002103785026,7
26.524420736789466,0.2878961318847427,7
26.534422403733956,0.24425755980208333,7
26.54442407067845,0.2051069410894662,7
26.55442573762294,0.1498096525671294,7
26.56442740456743,0.13161494282305627,7
26.57442907151192,0.10523914979522155,7
26.584430738456412,0.08817816473392716,7
26.5944324054009,0.061615175324692316,7
26.60443407234539,0.033086612211933056,7
26.61443573928988,0.023348446266549434,7
26.624437406234374,0.013524692055856623,7
26.634439073178864,0.0038812088507423053,7
26.644440740123354,-0.0035510920834784104,7
26.654442407067847,-0.0022982632649762667,7
26.664444074012337,-0.00208777834463773,7
26.674445740956827,-0.013266318534418,7
26.684447407901317,0.0024322038600382567,7
26.69444907484581,-0.008835918480217501,7
26.7044507417903,0.008877773896701545,7
26.71445240873479,-0.018971063931949295,7
26.72445407567928,-0.01790566753042351,7
26.734455742623773,-0.0077028177941665344,7
26.744457409568263,-0.016636101969898325,7
26.754459076512752,-0.05172022127701227,7
26.764460743457242,-0.03435498322712438,7
26.774462410401735,-0.06825297058081492,7
26.784464077346225,-0.0920680013385888,7
26.794465744290715,-0.13414869012880257,7
26.80446741123521,-0.1612683627148053,7
26.814469078179698,-0.19261813192476723,7
26.824470745124188,-0.2341315078172619,7
26.834472412068678,-0.25193220797169796,7
26.84447407901317,-0.3050142159585502,7
26.85447574595766,-0.3757424927252675,7
26.86447741290215,-0.3966700157748414,7
26.87447907984664,-0.45150863071310093,7
26.884480746791134,-0.5022606932899512,7
26.894482413735624,-0.5157006456774053,7
26.904484080680113,-0.5947146591208048,7
26.914485747624607,-0.6147243880111102,7
26.924487414569096,-0.6597551709951124,7
26.934489081513586,-0.716820082173226,7
26.944490748458076,-0.7217131864981879,7
26.95449241540257,-0.7337149463034226,7
26.96449408234706,-0.7623646449912933,7
26.97449574929155,-0.7749331533364515,7
26.98449741623604,-0.7646968537425143,7
26.994499083180532,-0.7604371253126234,7
27.004500750125022,-0.7395903483469145,7
27.01450241706951,-0.7362767906226013,7
27.024504084014005,-0.7098443522858946,7
27.034505750958495,-0.6872743080905545,7
27.044507417902985,-0.6314305805276498,7
27.054509084847474,-0.5936690247284768,7
27.064510751791968,-0.5123589298467405,7
27.074512418736457,-0.46118789660725096,7
27.084514085680947,-0.39061736758440607,7
27.094515752625437,-0.34036650815855396,7
27.10451741956993,-0.25200349316341075,7
27.11451908651442,-0.17695887336609026,7
27.12452075345891,-0.06501625761779845,7
27.134522420403403,-0.008675522198820722,7
27.144524087347893,0.0744829992944272,7
27.154525754292383,0.18048175093642063,7
27.164527421236873,0.2458290663472101,7
27.174529088181366,0.3286916886879697,7
27.184530755125856,0.41016837885187746,7
27.194532422070345,0.45508689712357053,7
27.204534089014835,0.5249484831937634,7
27.21453575595933,0.5872185743897403,7
27.22453742290382,0.6343426289737361,7
27.234539089848308,0.687641769302284,7
27.2445407567928,0.7123732124897192,7
27.25454242373729,0.7326525462570638,7
27.26454409068178,0.7625166890798037,7
27.27454575762627,0.7766536489297778,7
27.284547424570764,0.776722855965125,7
27.294549091515254,0.7569482991101066,7
27.304550758459744,0.7791787862746135,7
27.314552425404234,0.7588163092613814,7
27.324554092348727,0.7344384578317324,7
27.334555759293217,0.7205885550681606,7
27.344557426237706,0.6586768991633013,7
27.3545590931822,0.6366951819021823,7
27.36456076012669,0.5827910122775659,7
27.37456242707118,0.5332919441994962,7
27.38456409401567,0.47781732224816414,7
27.394565760960162,0.4446119061576835,7
27.404567427904652,0.391468552117772,7
27.414569094849142,0.3318646342971428,7
27.424570761793632,0.3157288601722192,7
27.434572428738125,0.2574772472722429,7
27.444574095682615,0.22750429269198108,7
27.454575762627105,0.18180753853482748,7
27.464577429571595,0.13859894576520304,7
27.474579096516088,0.14008445334491107,7
27.484580763460578,0.0840555007322259,7
27.494582430405067,0.060934275612489465,7
27.50458409734956,0.0354586409708921,7
27.51458576429405,0.03855099589540413,7
27.52458743123854,0.019979201456986524,7
27.53458909818303,0.0004978555496437682,7
27.544590765127523,-0.006577878629271667,7
27.554592432072013,-0.013220834387194746,7
27.564594099016503,-0.015427458925578376,7
27.574595765960993,-0.0013128658005334137,7
27.584597432905486,0.005211978389998642,7
27.594599099849976,0.00399963983609175,7
27.604600766794466,0.0020781287829020703,7
27.61460243373896,-0.0029242546878930895,7
27.62460410068345,-0.006694923159610199,7
27.63460576762794,-0.013298827240261324,7
27.64460743457243,-0.03465755147105613,7
27.65460910151692,-0.03261675308430126,7
27.66461076846141,-0.0330806630993599,7
27.6746124354059,-0.0656199656788507,7
27.68461410235039,-0.08238856507223677,7
27.694615769294884,-0.10452426429460773,7
27.704617436239374,-0.1479116536294828,7
27.714619103183864,-0.18029744117380267,7
27.724620770128357,-0.20176065731144943,7
27.734622437072847,-0.2547692009538015,7
27.744624104017337,-0.28973756553684676,7
27.754625770961827,-0.333204553605656,7
27.76462743790632,-0.3705093064397413,7
27.77462910485081,-0.4515739503164435,7
27.7846307717953,-0.4868341605729623,7
27.79463243873979,-0.5190648136415263,7
27.804634105684283,-0.5532099937668928,7
27.814635772628773,-0.6195755300414991,7
27.824637439573262,-0.6457289414656364,7
27.834639106517756,-0.6891990510295106,7
27.844640773462245,-0.7116616292673175,7
27.854642440406735,-0.7478973462063915,7
27.864644107351225,-0.7462157366384186,7
27.87464577429572,-0.7915654511999332,7
27.884647441240208,-0.7751381524838001,7
27.894649108184698,-0.7986894962464068,7
27.904650775129188,-0.7680903440434648,7
27.91465244207368,-0.7473294061038704,7
27.92465410901817,-0.7238490682577261,7
27.93465577596266,-0.686434949789261,7
27.944657442907154,-0.6624069284901546,7
27.954659109851644,-0.6089627055245825,7
27.964660776796133,-0.5505400439221371,7
27.974662443740623,-0.4925140982721586,7
27.984664110685117,-0.43837343574606286,7
27.994665777629606,-0.3487076807624304,7
28.004667444574096,-0.28570762141655753,7
28.014669111518586,-0.1955852583880352,7
28.02467077846308,-0.1229463759489857,7
28.03467244540757,-0.034570909802336826,7
28.04467411235206,0.061572715621390564,7
28.054675779296552,0.11704557351742492,7
28.064677446241042,0.21587278557790687,7
28.07467911318553,0.2792881728188001,7
28.08468078013002,0.3649384819737317,7
28.094682447074515,0.4549832985943868,7
28.104684114019005,0.5134125263512521,7
28.114685780963494,0.5625359246752928,7
28.124687447907984,0.6217030601529336,7
28.134689114852478,0.6683938963644763,7
28.144690781796967,0.7166151232035444,7
28.154692448741457,0.7455682199750066,7
28.164694115685947,0.7741086425756978,7
28.17469578263044,0.773936667730585,7
28.18469744957493,0.797402995164218,7
28.19469911651942,0.7884483904809928,7
28.204700783463913,0.7658984486952823,7
28.214702450408403,0.7653498775259141,7
28.224704117352893,0.7376748628896157,7
28.234705784297383,0.6999211692023619,7
28.244707451241876,0.6806709455668482,7
28.254709118186366,0.636967660700883,7
28.264710785130855,0.5930370171314535,7
28.274712452075345,0.5533517710705018,7
28.28471411901984,0.5196556131083758,7
28.29471578596433,0.4652594380364266,7
28.304717452908818,0.4276748437224994,7
28.31471911985331,0.3908810577444954,7
28.3247207867978,0.32119341845686705,7
28.33472245374229,0.27204375678938414,7
28.34472412068678,0.24452078530245955,7
28.354725787631274,0.1977719037341341,7
28.364727454575764,0.1801778570855141,7
28.374729121520254,0.12181315393330125,7
28.384730788464744,0.0990299746004153,7
28.394732455409237,0.07222225794837699,7
28.404734122353727,0.05648479136303598,7
28.414735789298216,0.03973249275500741,7
28.42473745624271,0.009707473805017255,7
28.4347391231872,0.009330429858639244,7
28.44474079013169,0.0034221652968379774,7
28.45474245707618,0.018187292205049627,7
28.464744124020672,0.0022418551501259022,7
28.474745790965162,-0.0202366478293196,7
28.484747457909652,0.009243996039224461,7
28.494749124854142,0.01513478000594933,7
28.504750791798635,-0.0015220075296084159,7
28.514752458743125,0.0004616808678858564,7
28.524754125687615,-0.008417554611484374,7
28.534755792632108,-0.008588324210822226,7
28.544757459576598,-0.009538754227885443,7
28.554759126521088,-0.011206236375105132,7
28.564760793465577,-0.02905346462706264,7
28.57476246041007,-0.05408033623718295,7
28.58476412735456,-0.07186780051239793,7
28.59476579429905,-0.11473446445797109,7
28.60476746124354,-0.13664449064401166,7
28.614769128188033,-0.16126846738561523,7
28.624770795132523,-0.1654054517058435,7
28.634772462077013,-0.24296256000681235,7
28.644774129021506,-0.2898276673047686,7
28.654775795965996,-0.32634783584526683,7
28.664777462910486,-0.36792077810607227,7
28.674779129854976,-0.41471403791767003,7
28.68478079679947,-0.46277956394333464,7
28.69478246374396,-0.5065754288785901,7
28.70478413068845,-0.5348661676479487,7
28.71478579763294,-0.5770095572097509,7
28.72478746457743,-0.6360705168563355,7
28.73478913152192,-0.6534005005635544,7
28.74479079846641,-0.6938418130961448,7
28.754792465410905,-0.7433080887346112,7
28.764794132355394,-0.7416315918635333,7
28.774795799299884,-0.7789630509082865,7
28.784797466244374,-0.7722648915015035,7
28.794799133188867,-0.7641547214678972,7
28.804800800133357,-0.7601252686645069,7
28.814802467077847,-0.7509018752626216,7
28.824804134022337,-0.733337969067863,7
28.83480580096683,-0.6987248997201858,7
28.84480746791132,-0.6623659648119197,7
28.85480913485581,-0.6189592979858675,7
