time,ppg_signal,subject_id
0.0,0.001795865591929432,11
0.010001666944490749,0.071021713227337,11
0.020003333888981498,0.18132717770284146,11
0.030005000833472247,0.24634891178745233,11
0.040006667777962995,0.316486206904246,11
0.050008334722453744,0.3599341570161857,11
0.06001000166694449,0.4443253476800856,11
0.07001166861143523,0.49171893431843156,11
0.08001333555592599,0.5547089435291275,11
0.09001500250041675,0.5999269129283522,11
0.10001666944490749,0.6620401197546045,11
0.11001833638939823,0.7009054094159894,11
0.12002000333388899,0.7181174507707089,11
0.13002167027837974,0.7355405202601252,11
0.14002333722287047,0.7555266897172088,11
0.15002500416736123,0.7701858301926613,11
0.16002667111185198,0.7445624619936971,11
0.17002833805634274,0.7762541062723691,11
0.1800300050008335,0.7798643219441121,11
0.19003167194532422,0.7283872295776733,11
0.20003333888981498,0.7438212637891445,11
0.21003500583430573,0.7096046196383384,11
0.22003667277879646,0.6562600144721312,11
0.23003833972328722,0.6491232986411296,11
0.24004000666777797,0.6118525242279488,11
0.2500416736122687,0.544390603049116,11
0.2600433405567595,0.5288426156209601,11
0.2700450075012502,0.47864330867073385,11
0.28004667444574094,0.44403153169208687,11
0.2900483413902317,0.3814503247549343,11
0.30005000833472245,0.33133277779579184,11
0.31005167527921323,0.3094617911701542,11
0.32005334222370396,0.25200829090122423,11
0.3300550091681947,0.2381903041424376,11
0.3400566761126855,0.18244941143091925,11
0.3500583430571762,0.161739888063058,11
0.360060010001667,0.13501495397794672,11
0.3700616769461577,0.1052212700393148,11
0.38006334389064844,0.06838780066720479,11
0.3900650108351392,0.06909959021345463,11
0.40006667777962995,0.04594122343530552,11
0.4100683447241207,0.024673359222949314,11
0.42007001166861146,0.03157602190922637,11
0.4300716786131022,0.013987049132587921,11
0.4400733455575929,-0.004069746638651273,11
0.4500750125020837,-0.003914012460799904,11
0.46007667944657443,0.0014116351314904978,11
0.4700783463910652,-0.016082586577894215,11
0.48008001333555594,-0.002021250162494878,11
0.49008168028004667,0.0059350303574431445,11
0.5000833472245374,0.009441254854680593,11
0.5100850141690282,0.027188246735839285,11
0.520086681113519,-0.002713275970296594,11
0.5300883480580096,0.008423111696334841,11
0.5400900150025004,-0.008095597800503191,11
0.5500916819469912,-0.014837035356374694,11
0.5600933488914819,-0.02379793352575437,11
0.5700950158359727,-0.052430915541331134,11
0.5800966827804634,-0.060169255029872984,11
0.5900983497249542,-0.08316297926000925,11
0.6001000166694449,-0.12967116604079182,11
0.6101016836139357,-0.14103303019983085,11
0.6201033505584265,-0.18777923325827156,11
0.6301050175029171,-0.2025646478568639,11
0.6401066844474079,-0.2558675596683235,11
0.6501083513918987,-0.2979244746003761,11
0.6601100183363894,-0.3262598386509569,11
0.6701116852808802,-0.38414427184811806,11
0.680113352225371,-0.42675920841014353,11
0.6901150191698616,-0.45985214920857137,11
0.7001166861143524,-0.5000444948671804,11
0.7101183530588432,-0.5391488731855711,11
0.720120020003334,-0.5904004368113343,11
0.7301216869478246,-0.6345601667934337,11
0.7401233538923154,-0.6678636239916007,11
0.7501250208368062,-0.7029913630478742,11
0.7601266877812969,-0.7331509594378408,11
0.7701283547257877,-0.7478114165039476,11
0.7801300216702785,-0.7779492320972483,11
0.7901316886147691,-0.7741550031141224,11
0.8001333555592599,-0.7758218638455602,11
0.8101350225037507,-0.7829999193625934,11
0.8201366894482414,-0.7611254157651451,11
0.8301383563927321,-0.7680740490012212,11
0.8401400233372229,-0.7274146509528765,11
0.8501416902817136,-0.6981544319021951,11
0.8601433572262044,-0.6694765931986827,11
0.8701450241706952,-0.6250111970775057,11
0.8801466911151858,-0.5754339557947138,11
0.8901483580596766,-0.5389150789558125,11
0.9001500250041674,-0.46636362238549584,11
0.9101516919486582,-0.4046679455897511,11
0.9201533588931489,-0.33395231920872753,11
0.9301550258376396,-0.2689079382942757,11
0.9401566927821304,-0.20035120114231358,11
0.9501583597266211,-0.11427741376885014,11
0.9601600266711119,-0.006750682608960768,11
0.9701616936156027,0.060951787560013265,11
0.9801633605600933,0.11354228818756067,11
0.9901650275045841,0.21894981427587795,11
1.0001666944490748,0.2834983591560453,11
1.0101683613935657,0.34113471656908706,11
1.0201700283380564,0.38403322110813437,11
1.030171695282547,0.48004931480875046,11
1.040173362227038,0.5215829741173332,11
1.0501750291715286,0.5997947151539055,11
1.0601766961160193,0.6293643996319593,11
1.0701783630605102,0.6881170653304952,11
1.0801800300050008,0.7174730462498441,11
1.0901816969494915,0.7292564764841835,11
1.1001833638939824,0.747789162416632,11
1.110185030838473,0.774916985556608,11
1.1201866977829638,0.7795014311492354,11
1.1301883647274547,0.7862061017796115,11
1.1401900316719453,0.7787435156063007,11
1.1501916986164362,0.7720896182042861,11
1.160193365560927,0.7491436309333981,11
1.1701950325054176,0.720142821178312,11
1.1801966994499085,0.6699015276900551,11
1.1901983663943991,0.6499753776847371,11
1.2002000333388898,0.6243447133681339,11
1.2102017002833807,0.5818674012067936,11
1.2202033672278714,0.5423788445781113,11
1.230205034172362,0.5013470581413112,11
1.240206701116853,0.48139624058630975,11
1.2502083680613436,0.4278206654404871,11
1.2602100350058343,0.36047431315679823,11
1.2702117019503252,0.3363546748471122,11
1.2802133688948159,0.2573276657117556,11
1.2902150358393065,0.2323195016900811,11
1.3002167027837974,0.1958505225762509,11
1.310218369728288,0.18573881629989172,11
1.3202200366727788,0.1370704255495137,11
1.3302217036172697,0.11682829251931115,11
1.3402233705617603,0.08494958707750605,11
1.350225037506251,0.05519420671295512,11
1.360226704450742,0.04081855932594991,11
1.3702283713952326,0.04314706978213385,11
1.3802300383397232,0.0288301583577916,11
1.3902317052842141,0.020358202822976373,11
1.4002333722287048,0.0062094903188830205,11
1.4102350391731955,-0.0032908116529534563,11
1.4202367061176864,0.014874722224077201,11
1.430238373062177,-0.01795461345290934,11
1.440240040006668,-0.0029976321273671386,11
1.4502417069511586,0.0021277346835177763,11
1.4602433738956493,0.009868691151376986,11
1.4702450408401402,0.0028675154577563642,11
1.4802467077846309,-0.00416953333745505,11
1.4902483747291215,0.006594823450893279,11
1.5002500416736124,-0.026789269016460407,11
1.510251708618103,-0.021662632139564195,11
1.5202533755625938,-0.044359496694985984,11
1.5302550425070847,-0.05142785991324504,11
1.5402567094515753,-0.06221306698367123,11
1.550258376396066,-0.08583403522372224,11
1.560260043340557,-0.10644200956414508,11
1.5702617102850476,-0.13753565294543307,11
1.5802633772295382,-0.16577611116218535,11
1.5902650441740291,-0.1954643318072074,11
1.6002667111185198,-0.2369630360388022,11
1.6102683780630105,-0.24608626018339497,11
1.6202700450075014,-0.3090434202138214,11
1.630271711951992,-0.3696745096057543,11
1.6402733788964827,-0.40914111561566613,11
1.6502750458409736,-0.41943594308968074,11
1.6602767127854643,-0.49321118465825575,11
1.670278379729955,-0.5196498060891003,11
1.6802800466744459,-0.5677625049235789,11
1.6902817136189365,-0.6004060491704271,11
1.7002833805634272,-0.6416081123408023,11
1.710285047507918,-0.6765282229117687,11
1.7202867144524088,-0.7099053333671871,11
1.7302883813968994,-0.7241675008774149,11
1.7402900483413903,-0.7824538602519971,11
1.750291715285881,-0.7508185163882661,11
1.7602933822303717,-0.7885252996874789,11
1.7702950491748626,-0.7864103812099666,11
1.7802967161193533,-0.78259105119466,11
1.7902983830638441,-0.7657757212710836,11
1.8003000500083348,-0.7526476058975696,11
1.8103017169528255,-0.7261121889752732,11
1.8203033838973164,-0.6831517343593128,11
1.830305050841807,-0.6531787991696433,11
1.8403067177862977,-0.6058846176740621,11
1.8503083847307886,-0.5448635058365346,11
1.8603100516752793,-0.4993701467040585,11
1.87031171861977,-0.4231968106030639,11
1.8803133855642609,-0.34489966001445466,11
1.8903150525087515,-0.2836284791585172,11
1.9003167194532422,-0.20252398829256074,11
1.910318386397733,-0.14091068885868382,11
1.9203200533422238,-0.06955592706212531,11
1.9303217202867144,0.04667913242683888,11
1.9403233872312053,0.10839162745669331,11
1.950325054175696,0.18124507493638872,11
1.9603267211201867,0.25779723383092185,11
1.9703283880646776,0.30780547366402583,11
1.9803300550091683,0.38779372035342097,11
1.990331721953659,0.46684541405921665,11
2.0003333888981496,0.5175816495702578,11
2.0103350558426407,0.5612875308162495,11
2.0203367227871314,0.622618353206852,11
2.030338389731622,0.66037225840006,11
2.0403400566761127,0.6766556645048776,11
2.0503417236206034,0.7271641145285462,11
2.060343390565094,0.7563777245494097,11
2.070345057509585,0.7690396800724602,11
2.080346724454076,0.7819929095620924,11
2.0903483913985665,0.7718577872313027,11
2.100350058343057,0.7772541445168475,11
2.110351725287548,0.7744327614353799,11
2.1203533922320386,0.7525135954697069,11
2.1303550591765297,0.7316737073917162,11
2.1403567261210203,0.6822413353051213,11
2.150358393065511,0.6596969970177281,11
2.1603600600100017,0.6375544681937758,11
2.1703617269544924,0.6053384645946939,11
2.180363393898983,0.5619344571410585,11
2.190365060843474,0.5151041915103757,11
2.200366727787965,0.47534861857670824,11
2.2103683947324555,0.43259560102091854,11
2.220370061676946,0.38287974201789177,11
2.230371728621437,0.34797156461254447,11
2.2403733955659275,0.28374048563902143,11
2.2503750625104186,0.2645051087342913,11
2.2603767294549093,0.22301585424955225,11
2.2703783963994,0.17858106758529269,11
2.2803800633438907,0.13765673313343854,11
2.2903817302883813,0.11124763424859956,11
2.3003833972328724,0.10384602132685315,11
2.310385064177363,0.06517717452222947,11
2.320386731121854,0.05218525082127171,11
2.3303883980663445,0.032241647765889066,11
2.340390065010835,0.03303494022048371,11
2.350391731955326,0.021606533993746836,11
2.360393398899817,0.01713254261665202,11
2.3703950658443076,0.015147756761300838,11
2.3803967327887983,-0.005767508608546225,11
2.390398399733289,0.013829603303946062,11
2.4004000666777796,0.00819412398767879,11
2.4104017336222703,0.007929619751468699,11
2.4204034005667614,-0.014329105268764785,11
2.430405067511252,-0.017866756747254083,11
2.4404067344557427,-0.006912664475903528,11
2.4504084014002334,-0.01957668192985334,11
2.460410068344724,-0.004927827726370195,11
2.4704117352892148,-0.029145153558128717,11
2.480413402233706,-0.026361404671688116,11
2.4904150691781965,-0.03201968371892735,11
2.5004167361226872,-0.050385977864105404,11
2.510418403067178,-0.07450541160701506,11
2.5204200700116686,-0.10714907171767939,11
2.5304217369561592,-0.14343207149642367,11
2.5404234039006504,-0.14465609380449998,11
2.550425070845141,-0.17894751472951517,11
2.5604267377896317,-0.2291297705155827,11
2.5704284047341224,-0.2543230491660137,11
2.580430071678613,-0.2998297941687233,11
2.590431738623104,-0.3423879411010545,11
2.600433405567595,-0.3751260129356071,11
2.6104350725120855,-0.4143236091089281,11
2.620436739456576,-0.4608944153426351,11
2.630438406401067,-0.5120465678778654,11
2.6404400733455575,-0.5714736302151158,11
2.6504417402900486,-0.6121336954434704,11
2.6604434072345393,-0.633960860118988,11
2.67044507417903,-0.6468897123907534,11
2.6804467411235207,-0.6994822789343124,11
2.6904484080680113,-0.7290518145543248,11
2.700450075012502,-0.7473355505787612,11
2.710451741956993,-0.7560697356821837,11
2.720453408901484,-0.7871876391944745,11
2.7304550758459745,-0.8083944259800061,11
2.740456742790465,-0.7800990675215574,11
2.750458409734956,-0.7596676953135364,11
2.7604600766794465,-0.7478283183155431,11
2.7704617436239376,-0.7346112673400707,11
2.7804634105684283,-0.6912917664061293,11
2.790465077512919,-0.636395304294147,11
2.8004667444574096,-0.6229556570489734,11
2.8104684114019003,-0.564686557248205,11
2.820470078346391,-0.5010603613340016,11
2.830471745290882,-0.4482536621558157,11
2.8404734122353728,-0.3757676607977377,11
2.8504750791798634,-0.3206769668668425,11
2.860476746124354,-0.23965677807168864,11
2.8704784130688448,-0.1579823659710021,11
2.880480080013336,-0.07405085937499942,11
2.8904817469578266,-0.02412547625120446,11
2.9004834139023172,0.0508130913315615,11
2.910485080846808,0.14164509437445982,11
2.9204867477912986,0.22037500734266624,11
2.9304884147357892,0.2971947303991361,11
2.9404900816802804,0.35168620550995,11
2.950491748624771,0.4149789024159585,11
2.9604934155692617,0.4956887771742834,11
2.9704950825137524,0.5546132483379331,11
2.980496749458243,0.6154854049878283,11
2.9904984164027337,0.6631887715192851,11
3.000500083347225,0.6678613549607069,11
3.0105017502917155,0.7168221810182013,11
3.020503417236206,0.7489995094580391,11
3.030505084180697,0.7543105287803246,11
3.0405067511251875,0.7768567034409454,11
3.050508418069678,0.7661579988003447,11
3.0605100850141693,0.7708000809335647,11
3.07051175195866,0.771177093696126,11
3.0805134189031507,0.7402586333088513,11
3.0905150858476413,0.7441154924492208,11
3.100516752792132,0.6973734579360745,11
3.1105184197366227,0.6777869830947805,11
3.120520086681114,0.6426090915894895,11
3.1305217536256045,0.6113093779035985,11
3.140523420570095,0.5854816598603191,11
3.150525087514586,0.548092374206716,11
3.1605267544590765,0.4872976192932261,11
3.170528421403567,0.432329775072006,11
3.1805300883480583,0.40481179297851266,11
3.190531755292549,0.36722367857916965,11
3.2005334222370396,0.31734135925177814,11
3.2105350891815303,0.27399379880240543,11
3.220536756126021,0.23404181399778934,11
3.230538423070512,0.19936202329649313,11
3.2405400900150028,0.15989160271480216,11
3.2505417569594934,0.1349635421584104,11
3.260543423903984,0.10649034734421434,11
3.270545090848475,0.08488398066155484,11
3.2805467577929655,0.053739111691766976,11
3.2905484247374566,0.04647386286856531,11
3.3005500916819472,0.013556213333453328,11
3.310551758626438,0.0422110056491454,11
3.3205534255709286,0.0024183347757873175,11
3.3305550925154193,-0.0010022565341972541,11
3.34055675945991,0.001511080657464442,11
3.350558426404401,0.005678045387801348,11
3.3605600933488917,-0.0023648894798119907,11
3.3705617602933824,0.012595861340789305,11
3.380563427237873,0.0117785943600241,11
3.3905650941823637,-0.010286663186477415,11
3.4005667611268544,-0.004841753837931522,11
3.4105684280713455,0.0033954414973268775,11
3.420570095015836,-0.008825020194551223,11
3.430571761960327,-0.01113343479837878,11
3.4405734289048175,-0.02621449869785806,11
3.450575095849308,-0.042616226598551805,11
3.460576762793799,-0.06293012107104082,11
3.47057842973829,-0.06233788999933454,11
3.4805800966827807,-0.09036620950818021,11
3.4905817636272714,-0.1081876106202862,11
3.500583430571762,-0.13077861503953825,11
3.5105850975162527,-0.18016941218158233,11
3.5205867644607434,-0.21512322020356914,11
3.5305884314052345,-0.2604570565933657,11
3.540590098349725,-0.27857187495612573,11
3.550591765294216,-0.32016097946461775,11
3.5605934322387065,-0.38037664567213936,11
3.570595099183197,-0.3969919415769847,11
3.5805967661276883,-0.44782685873513056,11
3.590598433072179,-0.4823414502025674,11
3.6006001000166696,-0.5448688164536687,11
3.6106017669611603,-0.5751422002733573,11
3.620603433905651,-0.6141760655880905,11
3.6306051008501417,-0.6639365070333003,11
3.6406067677946328,-0.6769073311299717,11
3.6506084347391234,-0.7204233602287324,11
3.660610101683614,-0.7623454945402609,11
3.670611768628105,-0.7517099362260828,11
3.6806134355725955,-0.7706110253400859,11
3.690615102517086,-0.7645640794499882,11
3.7006167694615772,-0.771062603616221,11
3.710618436406068,-0.7584362267448641,11
3.7206201033505586,-0.7605351025366119,11
3.7306217702950493,-0.7376517597264326,11
3.74062343723954,-0.7142557636857326,11
3.7506251041840306,-0.6582288522725025,11
3.7606267711285217,-0.64871907444812,11
3.7706284380730124,-0.5699509160471868,11
3.780630105017503,-0.5444850595648885,11
3.7906317719619937,-0.4867759518694008,11
3.8006334389064844,-0.3964173509522246,11
3.810635105850975,-0.34565996617973616,11
3.820636772795466,-0.2780538957648894,11
3.830638439739957,-0.207489471819301,11
3.8406401066844476,-0.10712782918170087,11
3.8506417736289382,-0.0456262197959615,11
3.860643440573429,0.027101133020747667,11
3.87064510751792,0.11201112547270826,11
3.8806467744624107,0.1821142652124166,11
3.8906484414069014,0.24597134933377224,11
3.900650108351392,0.3325713796354377,11
3.9106517752958827,0.40709934215826094,11
3.9206534422403734,0.45467199383365603,11
3.9306551091848645,0.5211259740574645,11
3.940656776129355,0.5914074054805589,11
3.950658443073846,0.6149821612003988,11
3.9606601100183365,0.6733708810210169,11
3.970661776962827,0.7079913415101305,11
3.980663443907318,0.723870165149642,11
3.990665110851809,0.7615606265289632,11
4.000666777796299,0.7773102253524112,11
4.01066844474079,0.7864065250936143,11
4.020670111685281,0.777631147408697,11
4.030671778629772,0.780171038041189,11
4.040673445574263,0.7593349368896003,11
4.0506751125187535,0.730537904283727,11
4.060676779463244,0.6985120332618628,11
4.070678446407735,0.7010919343274916,11
4.0806801133522255,0.667133480685645,11
4.090681780296716,0.6286832158240242,11
4.100683447241207,0.5898890063191242,11
4.1106851141856975,0.5355231461673406,11
4.120686781130188,0.510278306576702,11
4.130688448074679,0.46050698772609844,11
4.14069011501917,0.417458389141828,11
4.150691781963661,0.3768531055818921,11
4.160693448908152,0.31847692729748917,11
4.170695115852642,0.29711293812779904,11
4.180696782797133,0.26423346491193084,11
4.190698449741624,0.2037698002455258,11
4.200700116686114,0.1724138992157723,11
4.210701783630605,0.1476095429148593,11
4.220703450575096,0.1012337242931393,11
4.2307051175195864,0.0950545803793051,11
4.240706784464077,0.07523471010225936,11
4.250708451408569,0.05635169967324172,11
4.260710118353059,0.02251957065185338,11
4.27071178529755,0.03878724062162888,11
4.280713452242041,0.02183877772021044,11
4.290715119186531,0.022350559310453155,11
4.300716786131022,-0.011330214653663833,11
4.310718453075513,0.0037541295123684577,11
4.320720120020003,0.007194182993011099,11
4.330721786964494,0.01671740616423816,11
4.340723453908985,-0.005596899335378097,11
4.350725120853475,0.010256574477728451,11
4.360726787797966,0.00952130637815324,11
4.370728454742458,-0.006530500795553527,11
4.380730121686948,-0.011943077615167752,11
4.390731788631439,-0.013728850047477807,11
4.40073345557593,-0.01486224979529151,11
4.41073512252042,-0.022387947359029627,11
4.420736789464911,-0.05155026297154841,11
4.430738456409402,-0.06637891697004403,11
4.440740123353892,-0.06986405479135924,11
4.450741790298383,-0.11284591527080512,11
4.460743457242874,-0.12834873625865914,11
4.470745124187364,-0.14870526330836273,11
4.480746791131855,-0.1920241259101333,11
4.490748458076347,-0.22989188042455178,11
4.500750125020837,-0.26217186230435285,11
4.510751791965328,-0.31964198674500877,11
4.520753458909819,-0.34088508291750436,11
4.530755125854309,-0.39812387594527804,11
4.5407567927988,-0.43772442992925353,11
4.550758459743291,-0.48849968574709896,11
4.560760126687781,-0.5121799024924631,11
4.570761793632272,-0.5783279667444544,11
4.580763460576763,-0.6074225240727931,11
4.590765127521253,-0.641942655747582,11
4.600766794465745,-0.6782217946368635,11
4.6107684614102356,-0.7159935946584515,11
4.620770128354726,-0.7404145597970375,11
4.630771795299217,-0.7403465663046289,11
4.640773462243708,-0.778245499352582,11
4.650775129188198,-0.7607849307288264,11
4.660776796132689,-0.7735774209042662,11
4.67077846307718,-0.7477635152245239,11
4.68078013002167,-0.7636408491491132,11
4.690781796966161,-0.7424360755277858,11
4.700783463910652,-0.7033806889098917,11
4.710785130855142,-0.6846806409997145,11
4.720786797799634,-0.6644491425837089,11
4.7307884647441245,-0.6147476654034273,11
4.740790131688615,-0.5549438558015457,11
4.750791798633106,-0.48792053929041573,11
4.7607934655775965,-0.4470994347942547,11
4.770795132522087,-0.37302414061691586,11
4.780796799466578,-0.28385290045961775,11
4.7907984664110685,-0.21909831637618726,11
4.800800133355559,-0.16195957756602525,11
4.81080180030005,-0.08915101884119622,11
4.820803467244541,0.01932330403436542,11
4.830805134189032,0.09131147213534108,11
4.840806801133523,0.14351593608367613,11
4.8508084680780135,0.21509994758438605,11
4.860810135022504,0.3158755860017072,11
4.870811801966995,0.37255535120375494,11
4.8808134689114855,0.43879165041302587,11
4.890815135855976,0.5120960721173254,11
4.900816802800467,0.5341599705178187,11
4.9108184697449575,0.5997599058615554,11
4.920820136689448,0.6523541311442189,11
4.930821803633939,0.6905438015933328,11
4.9408234705784295,0.71144934635808,11
4.950825137522921,0.7394244107786077,11
4.960826804467412,0.7529553479040706,11
4.970828471411902,0.7692387669848959,11
4.980830138356393,0.7669228271731953,11
4.990831805300884,0.7743877725807709,11
5.0008334722453744,0.7545460148535917,11
5.010835139189865,0.7693644209786827,11
5.020836806134356,0.7210568149677906,11
5.0308384730788465,0.7041454229835962,11
5.040840140023337,0.673685668540646,11
5.050841806967828,0.6203823490225642,11
5.0608434739123185,0.5839595733656172,11
5.07084514085681,0.5694518061514882,11
5.080846807801301,0.5209417512438804,11
5.090848474745791,0.4621969451039033,11
5.100850141690282,0.43258079542477884,11
5.110851808634773,0.39718798218474843,11
5.120853475579263,0.35016427257995864,11
5.130855142523754,0.3019455758812503,11
5.140856809468245,0.2730885920323765,11
5.150858476412735,0.23367701990093087,11
5.160860143357226,0.19911990545951158,11
5.170861810301717,0.13945123605102502,11
5.180863477246208,0.12872135446112273,11
5.190865144190699,0.09418718244658357,11
5.20086681113519,0.08704500650992097,11
5.21086847807968,0.07386278677943497,11
5.220870145024171,0.05826179989952912,11
5.230871811968662,0.045150602446228295,11
5.240873478913152,0.028934141293233927,11
5.250875145857643,0.02106163988913983,11
5.260876812802134,-0.01638447991800129,11
5.270878479746624,0.019432695603878714,11
5.280880146691115,0.01968756032043439,11
5.290881813635606,-0.007674696830672014,11
5.300883480580097,0.007067029150752343,11
5.310885147524588,0.009046794073437298,11
5.320886814469079,-0.0007446277755887832,11
5.330888481413569,0.004528312621588964,11
5.34089014835806,-0.0015580456175672882,11
5.350891815302551,-0.009943337693669148,11
5.360893482247041,-0.016508267878555534,11
5.370895149191532,-0.026977818038611837,11
5.380896816136023,-0.015572291816477072,11
5.390898483080513,-0.04979557324798061,11
5.400900150025004,-0.06985100137752687,11
5.410901816969495,-0.07336161113088205,11
5.420903483913986,-0.1333751888353559,11
5.430905150858477,-0.14713065392890687,11
5.440906817802968,-0.18846403921182123,11
5.450908484747458,-0.22027171114116664,11
5.460910151691949,-0.2577614395081085,11
5.47091181863644,-0.27462807932734873,11
5.48091348558093,-0.3321544871765872,11
5.490915152525421,-0.3685476571428057,11
5.500916819469912,-0.4221133168187437,11
5.510918486414402,-0.4651600399695747,11
5.520920153358893,-0.5131343278184264,11
5.5309218203033845,-0.5683885343339317,11
5.540923487247875,-0.5704195038440465,11
5.550925154192366,-0.6316775258226056,11
5.5609268211368565,-0.6778974077699192,11
5.570928488081347,-0.6842736093107231,11
5.580930155025838,-0.7320661303233001,11
5.590931821970329,-0.7518353658163317,11
5.600933488914819,-0.7627693168083894,11
5.61093515585931,-0.795149445812186,11
5.620936822803801,-0.776815372596026,11
5.630938489748291,-0.7962745396639078,11
5.640940156692782,-0.7803378184698588,11
5.6509418236372735,-0.7508085843810784,11
5.660943490581764,-0.7197329500802654,11
5.670945157526255,-0.6921661195950102,11
5.6809468244707455,-0.6527742616491851,11
5.690948491415236,-0.6391781147479736,11
5.700950158359727,-0.5694796165714899,11
5.7109518253042175,-0.5195802296918204,11
5.720953492248708,-0.4652525018459914,11
5.730955159193199,-0.40375714605325014,11
5.7409568261376895,-0.33493931276692296,11
5.75095849308218,-0.2536104341951626,11
5.760960160026672,-0.19796327619145543,11
5.7709618269711624,-0.10867495656971307,11
5.780963493915653,-0.02389002880623983,11
5.790965160860144,0.05146278983492858,11
5.8009668278046345,0.12221623191047444,11
5.810968494749125,0.21538842924593812,11
5.820970161693616,0.2785956763278324,11
5.8309718286381065,0.3469120625441594,11
5.840973495582597,0.42345898944254456,11
5.850975162527088,0.4797011560486345,11
5.8609768294715785,0.5252433861603796,11
5.870978496416069,0.6021018713200557,11
5.880980163360561,0.6294221640359139,11
5.890981830305051,0.6688993076399127,11
5.900983497249542,0.708748631233586,11
5.910985164194033,0.7264941384578983,11
5.920986831138523,0.7595976412805451,11
5.930988498083014,0.7728726940499471,11
5.940990165027505,0.7887052302257849,11
5.950991831971995,0.7741614509555057,11
5.960993498916486,0.76769262739633,11
5.970995165860977,0.7770454970702871,11
5.9809968328054675,0.7269960772853241,11
5.990998499749958,0.7199600382687081,11
6.00100016669445,0.7002185301259903,11
6.01100183363894,0.6429243888231372,11
6.021003500583431,0.5999609907080717,11
6.031005167527922,0.5883671236430472,11
6.041006834472412,0.5373605400648366,11
6.051008501416903,0.4930142960716691,11
6.061010168361394,0.4273764091171732,11
6.071011835305884,0.39379731520498434,11
6.081013502250375,0.3581997805370414,11
6.091015169194866,0.3362243220100182,11
6.101016836139356,0.26558852356173207,11
6.111018503083848,0.24221863581066733,11
6.121020170028339,0.19123373992036385,11
6.131021836972829,0.15866652458219316,11
6.14102350391732,0.12344173303136925,11
6.151025170861811,0.11529148866722141,11
6.161026837806301,0.10576031444123855,11
6.171028504750792,0.07061013128625368,11
6.181030171695283,0.051187839893915704,11
6.191031838639773,0.022868325180936327,11
6.201033505584264,0.034604815066283975,11
6.211035172528755,0.009214316724890613,11
6.221036839473245,0.022287075754142897,11
6.231038506417737,0.007784296903669471,11
6.241040173362228,0.0008613591706276735,11
6.251041840306718,0.005885932796419722,11
6.261043507251209,0.006977129421905061,11
6.2710451741957,-0.0012098232998547073,11
6.28104684114019,-0.0019967738852954015,11
6.291048508084681,0.0019440404151752806,11
6.301050175029172,0.0015685592293095997,11
6.311051841973662,-0.004276293782802523,11
6.321053508918153,-0.020053658676402263,11
6.331055175862644,-0.03570688767385204,11
6.341056842807134,-0.02310391118056302,11
6.351058509751626,-0.04944253604198509,11
6.361060176696117,-0.06773772094013715,11
6.371061843640607,-0.08594593502647412,11
6.381063510585098,-0.11223280321363573,11
6.391065177529589,-0.1419476906186796,11
6.401066844474079,-0.16497597268930797,11
6.41106851141857,-0.18993819941577683,11
6.421070178363061,-0.23642532736945723,11
6.431071845307551,-0.26940924192005344,11
6.441073512252042,-0.30637709992991696,11
6.451075179196533,-0.3540071229592105,11
6.461076846141024,-0.38034569491740294,11
6.471078513085515,-0.4549257562705495,11
6.4810801800300055,-0.4863213396968813,11
6.491081846974496,-0.5258466067650597,11
6.501083513918987,-0.5734750406374813,11
6.5110851808634775,-0.6040599665937165,11
6.521086847807968,-0.6580692274731642,11
6.531088514752459,-0.6805322891598068,11
6.54109018169695,-0.7031026128219156,11
6.55109184864144,-0.7370983228903483,11
6.561093515585931,-0.7429325089428817,11
6.571095182530422,-0.7771078946549469,11
6.581096849474913,-0.7919211017721187,11
6.591098516419404,-0.7783042137773394,11
6.6011001833638945,-0.7794242123677301,11
6.611101850308385,-0.771575310961977,11
6.621103517252876,-0.7428564850695468,11
6.6311051841973665,-0.7212239422389747,11
6.641106851141857,-0.6809640208675392,11
6.651108518086348,-0.6330867335244442,11
6.6611101850308385,-0.5798300672257646,11
6.671111851975329,-0.537453691575731,11
6.68111351891982,-0.48156921170640216,11
6.6911151858643105,-0.4414256772057594,11
6.701116852808802,-0.3644941377805791,11
6.711118519753293,-0.2992584615175941,11
6.721120186697783,-0.20361322434614856,11
6.731121853642274,-0.13768969909493767,11
6.741123520586765,-0.0639024632002252,11
6.7511251875312555,0.02111547759976308,11
6.761126854475746,0.09472747093689357,11
6.771128521420237,0.18307555927010088,11
6.7811301883647275,0.24456309188839662,11
6.791131855309218,0.3139112009399855,11
6.801133522253709,0.38634482224069555,11
6.8111351891982,0.4485641734027628,11
6.821136856142691,0.5348000718980666,11
6.831138523087182,0.5736931583576417,11
6.841140190031672,0.6340976109298085,11
6.851141856976163,0.6593007606095277,11
6.861143523920654,0.7121558414432626,11
6.871145190865144,0.7403860511277682,11
6.881146857809635,0.7444449942515063,11
6.891148524754126,0.7721079785677334,11
6.901150191698616,0.7657276053085871,11
6.911151858643107,0.7958332697830695,11
6.921153525587598,0.7741180126879847,11
6.931155192532089,0.7739784882526247,11
6.94115685947658,0.7410236088117169,11
6.951158526421071,0.7113877718020356,11
6.961160193365561,0.6955815091418317,11
6.971161860310052,0.6719594836541696,11
6.981163527254543,0.6373275078489888,11
6.991165194199033,0.5938102959322139,11
7.001166861143524,0.5444769406010543,11
7.011168528088015,0.5040138898068206,11
7.021170195032505,0.4732057439074295,11
7.031171861976996,0.4396283818756323,11
7.041173528921487,0.3838894508957026,11
7.051175195865978,0.32360128161514484,11
7.061176862810469,0.28148432137939383,11
7.07117852975496,0.263465250132975,11
7.08118019669945,0.23288310213239716,11
7.091181863643941,0.17902338466521084,11
7.101183530588432,0.14107560796131938,11
7.111185197532922,0.13276769998982607,11
7.121186864477413,0.09438029838916552,11
7.131188531421904,0.073284203509133,11
7.141190198366394,0.061358952631049096,11
7.151191865310885,0.033607289265977,11
7.161193532255377,0.03698422175943246,11
7.171195199199867,0.010897203069154655,11
7.181196866144358,0.03244397668638237,11
7.191198533088849,0.017101306831530827,11
7.201200200033339,-0.0076043134431718375,11
7.21120186697783,-0.005317566089682494,11
7.221203533922321,0.001508339553269567,11
7.231205200866811,-0.026271942973208576,11
7.241206867811302,-0.006979652812221561,11
7.251208534755793,0.0016469057460666852,11
7.261210201700283,-0.014170051741107862,11
7.271211868644774,0.0002024015696042089,11
7.2812135355892655,-0.00409976881184978,11
7.291215202533756,-0.026444840939251358,11
7.301216869478247,-0.03850366745533114,11
7.311218536422738,-0.04249696520646238,11
7.321220203367228,-0.0656043344374307,11
7.331221870311719,-0.08044837309068222,11
7.34122353725621,-0.08670707708784273,11
7.3512252042007,-0.1267846824695588,11
7.361226871145191,-0.14562424161922227,11
7.371228538089682,-0.18085351999906862,11
7.381230205034172,-0.20794326226129747,11
7.391231871978664,-0.2716180626535014,11
7.4012335389231545,-0.29845069683920306,11
7.411235205867645,-0.3467987218399201,11
7.421236872812136,-0.3767154312919635,11
7.4312385397566265,-0.4238268787063894,11
7.441240206701117,-0.4680854492715579,11
7.451241873645608,-0.5213572065188086,11
7.4612435405900985,-0.558608485379928,11
7.471245207534589,-0.6007855444670478,11
7.48124687447908,-0.6319977987994139,11
7.4912485414235706,-0.6707313824660606,11
7.501250208368061,-0.7020264555786528,11
7.511251875312553,-0.7144153693447405,11
7.5212535422570435,-0.7482991069009196,11
7.531255209201534,-0.7490623574590042,11
7.541256876146025,-0.7638933103607515,11
7.5512585430905155,-0.7799460294131026,11
7.561260210035006,-0.776416813943791,11
7.571261876979497,-0.7572878036726227,11
7.5812635439239875,-0.7530362861683819,11
7.591265210868478,-0.7198694361897199,11
7.601266877812969,-0.6848241300064677,11
7.6112685447574595,-0.657717453937721,11
7.62127021170195,-0.6092401374287748,11
7.631271878646442,-0.5618156406199138,11
7.641273545590932,-0.48950407704379606,11
7.651275212535423,-0.43632036414118686,11
7.661276879479914,-0.37819881370187075,11
7.671278546424404,-0.31010588753906343,11
7.681280213368895,-0.2500931411073767,11
7.691281880313386,-0.17027743506712273,11
7.7012835472578764,-0.09481449280767525,11
7.711285214202367,-0.03819008655115838,11
7.721286881146858,0.06132108182699683,11
7.7312885480913485,0.15222297214548894,11
7.74129021503584,0.21734727022193054,11
7.751291881980331,0.2908405615577799,11
7.761293548924821,0.3684796416128179,11
7.771295215869312,0.42560746009345146,11
7.781296882813803,0.4859164442187015,11
7.791298549758293,0.5462039846601633,11
7.801300216702784,0.6137055075944333,11
7.811301883647275,0.6392930343425407,11
7.821303550591765,0.684725496986925,11
7.831305217536256,0.729826301948805,11
7.841306884480747,0.7373314669261957,11
7.851308551425237,0.7536649862363605,11
7.861310218369729,0.7697707015108523,11
7.87131188531422,0.7745191152356367,11
7.88131355225871,0.7681133825299717,11
7.891315219203201,0.7606218662665283,11
7.901316886147692,0.7615904708321782,11
7.911318553092182,0.731196295279041,11
7.921320220036673,0.7236552695298777,11
7.931321886981164,0.6745886487657342,11
7.941323553925654,0.6338925511356506,11
7.951325220870145,0.6136915387959486,11
7.961326887814636,0.5780731509501663,11
7.971328554759126,0.5230850316158265,11
7.981330221703618,0.4893968779535304,11
7.991331888648109,0.4423367389368341,11
8.001333555592598,0.40180633783035236,11
8.01133522253709,0.3627536139127114,11
8.02133688948158,0.3143793195718138,11
8.031338556426071,0.2700129393844571,11
8.041340223370563,0.22438580554369067,11
8.051341890315053,0.19339409574441357,11
8.061343557259544,0.16815630875200055,11
8.071345224204034,0.14486558728300997,11
8.081346891148526,0.10416150883007508,11
8.091348558093015,0.06326296415719726,11
8.101350225037507,0.07001074797407533,11
8.111351891981997,0.0472847152412399,11
8.121353558926488,0.034346500047372795,11
8.131355225870978,0.021365238814677993,11
8.14135689281547,0.012585295405075844,11
8.151358559759961,-0.0021082170790879626,11
8.161360226704451,0.0005420866493248736,11
8.171361893648942,-0.011587691113345268,11
8.181363560593432,-0.011201726559120082,11
8.191365227537924,0.006685839474116663,11
8.201366894482414,-0.019164770689497967,11
8.211368561426905,0.006379322433881278,11
8.221370228371395,-0.023803130750791632,11
8.231371895315887,-0.00559252114592059,11
8.241373562260376,0.009864530366881556,11
8.251375229204868,-0.0121323925133382,11
8.261376896149358,-0.02892695147290021,11
8.27137856309385,-0.027026191062382132,11
8.28138023003834,-0.04643309951531245,11
8.29138189698283,-0.0708968659991277,11
8.301383563927322,-0.10405409178718655,11
8.311385230871812,-0.1083290694739001,11
8.321386897816303,-0.16679451571236187,11
8.331388564760793,-0.16038389442387865,11
8.341390231705285,-0.20865565592230523,11
8.351391898649775,-0.25287073316285313,11
8.361393565594266,-0.28241852460106925,11
8.371395232538756,-0.3219633890835628,11
8.381396899483248,-0.38190373114429865,11
8.391398566427739,-0.4074075218335846,11
8.401400233372229,-0.4657001164955314,11
8.41140190031672,-0.5004148878662568,11
8.42140356726121,-0.5574051485249043,11
8.431405234205702,-0.5818203703411584,11
8.441406901150192,-0.6140552165551113,11
8.451408568094683,-0.6758570097631966,11
8.461410235039173,-0.6897797938523168,11
8.471411901983664,-0.7452387644281657,11
8.481413568928154,-0.7464797241745555,11
8.491415235872646,-0.7648695729375761,11
8.501416902817137,-0.765235527400539,11
8.511418569761627,-0.7800081972149687,11
8.521420236706119,-0.7947843796473267,11
8.531421903650608,-0.7772872027664577,11
8.5414235705951,-0.7624732032417981,11
8.55142523753959,-0.7458522589540448,11
8.561426904484081,-0.718647967804665,11
8.571428571428571,-0.6849241102580119,11
8.581430238373063,-0.6352331263160738,11
8.591431905317553,-0.5872186933324961,11
8.601433572262044,-0.5277328484438957,11
8.611435239206534,-0.4765928959874737,11
8.621436906151025,-0.41171295621047577,11
8.631438573095517,-0.3321707002072531,11
8.641440240040007,-0.27301920111458766,11
8.651441906984498,-0.19052767069229898,11
8.661443573928988,-0.10826815889927408,11
8.67144524087348,-0.03534487468734707,11
8.68144690781797,0.02219438017821254,11
8.691448574762461,0.10701897187086788,11
8.70145024170695,0.1849763938029211,11
8.711451908651442,0.2617062767817879,11
8.721453575595932,0.3287717164269001,11
8.731455242540424,0.41112889866706587,11
8.741456909484915,0.46583654834200827,11
8.751458576429405,0.5195332615024156,11
8.761460243373897,0.5895112093207566,11
8.771461910318386,0.635765294135091,11
8.781463577262878,0.6649499781607088,11
8.791465244207368,0.6775252968239257,11
8.80146691115186,0.734173219038581,11
8.811468578096349,0.7394799271356656,11
8.82147024504084,0.787248069078464,11
8.83147191198533,0.769747321603176,11
8.841473578929822,0.7885689288580964,11
8.851475245874314,0.7794860918530967,11
8.861476912818803,0.7568240083305441,11
8.871478579763295,0.751159335451421,11
8.881480246707785,0.7143773807582919,11
8.891481913652276,0.6961629692228507,11
8.901483580596766,0.6694255645023098,11
8.911485247541258,0.6244822056842999,11
8.921486914485747,0.5929147982986472,11
8.931488581430239,0.5441582495395079,11
8.941490248374729,0.4910823394626379,11
8.95149191531922,0.46459532306912704,11
8.96149358226371,0.40276492584301643,11
8.971495249208202,0.3733926043186384,11
8.981496916152693,0.3432385023215539,11
8.991498583097183,0.3055270406877818,11
9.001500250041675,0.2615990424770459,11
9.011501916986164,0.20077722723526323,11
9.021503583930656,0.18653748313536306,11
9.031505250875146,0.1517184931367561,11
9.041506917819637,0.1203456339741745,11
9.051508584764127,0.09694183802918534,11
9.061510251708619,0.0642595789387457,11
9.071511918653108,0.05169471458592556,11
9.0815135855976,0.029096521750204385,11
9.091515252542091,0.020716674384083433,11
9.101516919486581,0.03333366323661001,11
9.111518586431073,-0.0017129823003400897,11
9.121520253375563,0.007236666278301736,11
9.131521920320054,0.009382928925451377,11
9.141523587264544,0.014565654762322964,11
9.151525254209036,0.00384792723616502,11
9.161526921153525,-0.005843153443262075,11
9.171528588098017,-0.0030674981011432597,11
9.181530255042507,-0.013009248933434012,11
9.191531921986998,0.0023624865630747782,11
9.20153358893149,-0.011144609420461417,11
9.21153525587598,-0.01809187766014777,11
9.221536922820471,-0.013025248156581456,11
9.231538589764961,-0.01157015848900965,11
9.241540256709452,-0.048592248862309,11
9.251541923653942,-0.06390606309540323,11
9.261543590598434,-0.0712745533121409,11
9.271545257542924,-0.11270770849350872,11
9.281546924487415,-0.11133166265719034,11
9.291548591431905,-0.16354305226934657,11
9.301550258376396,-0.20961826780926213,11
9.311551925320888,-0.25063665710787286,11
9.321553592265378,-0.2484637188532328,11
9.33155525920987,-0.3048548185635311,11
9.34155692615436,-0.34507883625875607,11
9.35155859309885,-0.37679681206299925,11
9.36156026004334,-0.4256818485249294,11
9.371561926987832,-0.4863771024757103,11
9.381563593932322,-0.5226945131270447,11
9.391565260876813,-0.5792382071605715,11
9.401566927821303,-0.5968556050864094,11
9.411568594765795,-0.6341045130575693,11
9.421570261710285,-0.6778904668297757,11
9.431571928654776,-0.6915711998366886,11
9.441573595599268,-0.7349827509305906,11
9.451575262543757,-0.753213182777339,11
9.461576929488249,-0.7682470395030376,11
9.471578596432739,-0.7714019781583329,11
9.48158026337723,-0.7778999557913694,11
9.49158193032172,-0.7691933522943154,11
9.501583597266212,-0.7644938879409768,11
9.511585264210701,-0.7520636398644198,11
9.521586931155193,-0.711842001797283,11
9.531588598099683,-0.6918268491505191,11
9.541590265044174,-0.6227388537147021,11
9.551591931988666,-0.6101478922351107,11
9.561593598933156,-0.5685124190389935,11
9.571595265877647,-0.5201723568365798,11
9.581596932822137,-0.43942193993607437,11
9.591598599766629,-0.37054333314438104,11
9.601600266711118,-0.29485250109616423,11
9.61160193365561,-0.2282280882258723,11
9.6216036006001,-0.15355796019779372,11
9.631605267544591,-0.07283674443673387,11
9.641606934489081,0.023846309928910316,11
9.651608601433573,0.07202034896100573,11
9.661610268378064,0.1658081083672638,11
9.671611935322554,0.22472683156492684,11
9.681613602267046,0.30162351483583144,11
9.691615269211535,0.37953604137160707,11
9.701616936156027,0.42117052834981455,11
9.711618603100517,0.5094135828631179,11
9.721620270045008,0.575628106786994,11
9.731621936989498,0.6231078975390654,11
9.74162360393399,0.6571210816223184,11
9.75162527087848,0.691601277300112,11
9.761626937822971,0.7265513331745866,11
9.77162860476746,0.7515797023987008,11
9.781630271711952,0.7706477160394183,11
9.791631938656444,0.7902277129458022,11
9.801633605600934,0.7620824571883635,11
9.811635272545425,0.7679616133657082,11
9.821636939489915,0.7641928508453983,11
9.831638606434407,0.7748391386935484,11
9.841640273378896,0.7318992039467516,11
9.851641940323388,0.7147987614710388,11
9.861643607267878,0.6507093469955371,11
9.87164527421237,0.6256535481777098,11
9.881646941156859,0.591340097677989,11
9.89164860810135,0.5622724338874237,11
9.901650275045842,0.5210952574736682,11
9.911651941990332,0.4678541709258788,11
9.921653608934824,0.441528056067113,11
9.931655275879313,0.38398134946617085,11
9.941656942823805,0.3496265974617086,11
9.951658609768295,0.30430113833151257,11
9.961660276712786,0.2582125228805067,11
9.971661943657276,0.2092902808304339,11
9.981663610601768,0.19184629894608354,11
9.991665277546257,0.1522574091184875,11
10.001666944490749,0.13918605559580638,11
10.01166861143524,0.09414036887146011,11
10.02167027837973,0.0764259329380682,11
10.031671945324222,0.05285989886252317,11
10.041673612268712,0.06044173972236866,11
10.051675279213203,0.02093501589496156,11
10.061676946157693,0.0064148750400770255,11
10.071678613102184,0.027471354613489204,11
10.081680280046674,0.01321116301507809,11
10.091681946991166,0.0022802887501414387,11
10.101683613935656,0.0018866781693950801,11
10.111685280880147,0.0015392709606850338,11
10.121686947824637,-0.0052063763517759725,11
10.131688614769129,-0.0005759096337408877,11
10.14169028171362,-0.005455660019199095,11
10.15169194865811,0.003302522215602426,11
10.161693615602601,-0.007038857439416192,11
10.171695282547091,-0.004526410212210754,11
10.181696949491583,-0.04794676105660306,11
10.191698616436073,-0.019420020619767463,11
10.201700283380564,-0.039344112427258944,11
10.211701950325054,-0.06192305377734041,11
10.221703617269545,-0.08016971050903138,11
10.231705284214035,-0.09818186570486614,11
10.241706951158527,-0.13111802921477708,11
10.251708618103018,-0.1664270995114266,11
10.261710285047508,-0.17942815338434212,11
10.271711951992,-0.21978431897664427,11
10.28171361893649,-0.25821715502162484,11
10.291715285880981,-0.30025314879057374,11
10.30171695282547,-0.32036140722875484,11
10.311718619769962,-0.36990461367059657,11
10.321720286714452,-0.42403995035220704,11
10.331721953658944,-0.4616321914954431,11
10.341723620603434,-0.5004766010437321,11
10.351725287547925,-0.559421939251112,11
10.361726954492417,-0.5956009813865417,11
10.371728621436906,-0.6169430029800301,11
10.381730288381398,-0.6636309804754073,11
10.391731955325888,-0.6928841248815798,11
10.40173362227038,-0.7363632607557825,11
10.41173528921487,-0.7353908599661075,11
10.42173695615936,-0.7375649338558483,11
10.43173862310385,-0.753122596483423,11
10.441740290048342,-0.7724261114949001,11
10.451741956992832,-0.7784248798004554,11
10.461743623937323,-0.764472087239741,11
10.471745290881813,-0.7415379652384751,11
10.481746957826305,-0.7392868050254876,11
10.491748624770796,-0.6945426914817197,11
10.501750291715286,-0.6872423397605661,11
10.511751958659778,-0.6231068111839582,11
10.521753625604267,-0.5913829649685691,11
10.531755292548759,-0.520493371246979,11
10.541756959493249,-0.4588622487513074,11
10.55175862643774,-0.4057313069664991,11
10.56176029338223,-0.3235246111891524,11
10.571761960326722,-0.2725998580310718,11
10.581763627271211,-0.1918301527201565,11
10.591765294215703,-0.09976376344554391,11
10.601766961160195,-0.02576204856996341,11
10.611768628104684,0.06078271782146179,11
10.621770295049176,0.12894310219241664,11
10.631771961993666,0.18968486858702852,11
10.641773628938157,0.27995916426259526,11
10.651775295882647,0.35897138799929185,11
10.661776962827139,0.4263917362818034,11
10.671778629771628,0.4781836224294084,11
10.68178029671612,0.5414084882406895,11
10.69178196366061,0.6024898763405109,11
10.701783630605101,0.6269409682266099,11
10.711785297549593,0.6811303445347906,11
10.721786964494083,0.6997882057465576,11
10.731788631438574,0.7395775661111761,11
10.741790298383064,0.7690448084666284,11
10.751791965327556,0.7700800475970492,11
10.761793632272045,0.7659930721962049,11
10.771795299216537,0.7651408534407124,11
10.781796966161027,0.7668487553496409,11
10.791798633105518,0.7553892454472647,11
10.801800300050008,0.7599169234586705,11
10.8118019669945,0.7212127953192431,11
10.82180363393899,0.6915631829298525,11
10.831805300883481,0.6438699532838267,11
10.841806967827972,0.6198834154324621,11
10.851808634772462,0.5896756116415067,11
10.861810301716954,0.5333853279771384,11
10.871811968661444,0.5037336599207046,11
10.881813635605935,0.43571643847893216,11
10.891815302550425,0.3935550080295396,11
10.901816969494917,0.3440822873972555,11
10.911818636439406,0.3105349986675063,11
10.921820303383898,0.28294813925712814,11
10.931821970328388,0.24778563519746424,11
10.94182363727288,0.21551541776767477,11
10.95182530421737,0.1669672533218458,11
10.96182697116186,0.1359191164466478,11
10.971828638106352,0.12233493306614118,11
10.981830305050842,0.084955093140908,11
10.991831971995333,0.08071032312213455,11
11.001833638939823,0.052277594189132505,11
11.011835305884315,0.04346672029903885,11
11.021836972828805,0.03317853410850738,11
11.031838639773296,0.007026350589221078,11
11.041840306717786,0.0018014164887330932,11
11.051841973662277,-0.004150832774115597,11
11.061843640606769,0.0044449888443598585,11
11.071845307551259,0.01250963832964547,11
11.08184697449575,-0.018731136699318737,11
11.09184864144024,-0.0051141589893905085,11
11.101850308384732,0.021428449193829135,11
11.111851975329222,0.001179239892148902,11
11.121853642273713,0.010924326676747193,11
11.131855309218203,-0.006628355640010315,11
11.141856976162694,-0.02771996933336246,11
11.151858643107184,-0.027494081707336283,11
11.161860310051676,-0.02375053905696625,11
11.171861976996166,-0.03263973908921116,11
11.181863643940657,-0.050943303345890284,11
11.191865310885149,-0.07841619583357244,11
11.201866977829638,-0.10737080874332454,11
11.21186864477413,-0.121643775142942,11
11.22187031171862,-0.18184303291677903,11
11.231871978663111,-0.1894538603624722,11
11.241873645607601,-0.23626218200519597,11
11.251875312552093,-0.285385472535603,11
11.261876979496583,-0.31978621109923255,11
11.271878646441074,-0.3595150064722746,11
11.281880313385564,-0.389321358666827,11
11.291881980330055,-0.43075345333747433,11
11.301883647274547,-0.47977627495597797,11
11.311885314219037,-0.5230314167982683,11
11.321886981163528,-0.5796588761687361,11
11.331888648108018,-0.6036906475968697,11
11.34189031505251,-0.6559658255965702,11
11.351891981997,-0.6814974663180904,11
11.361893648941491,-0.7152141328960753,11
11.37189531588598,-0.7446982182298343,11
11.381896982830472,-0.7552208517223234,11
11.391898649774962,-0.7569792714322783,11
11.401900316719454,-0.7700246817877084,11
11.411901983663945,-0.7778253544357998,11
11.421903650608435,-0.7735055031558444,11
11.431905317552927,-0.7548883867700328,11
11.441906984497416,-0.7287740772602368,11
11.451908651441908,-0.743410436010661,11
11.461910318386398,-0.69077372202573,11
11.47191198533089,-0.6426427704806333,11
11.481913652275379,-0.5872303509775589,11
11.49191531921987,-0.5476240201770508,11
11.50191698616436,-0.47539033279374093,11
11.511918653108852,-0.4368333861492431,11
11.521920320053344,-0.3598769861999392,11
11.531921986997833,-0.27996626899223,11
11.541923653942325,-0.21087213920049938,11
11.551925320886815,-0.1349225342788013,11
11.561926987831306,-0.061331910205209936,11
11.571928654775796,0.0058939549935177644,11
11.581930321720288,0.08828182350933227,11
11.591931988664777,0.17584681944092692,11
11.601933655609269,0.24934621820158523,11
11.611935322553759,0.3272329194355936,11
11.62193698949825,0.38951793211298674,11
11.63193865644274,0.4535302331692649,11
11.641940323387232,0.502155539247052,11
11.651941990331723,0.5631837393365868,11
11.661943657276213,0.6124463741641226,11
11.671945324220705,0.6684001442813917,11
11.681946991165194,0.6883793592199074,11
11.691948658109686,0.7219497670241286,11
11.701950325054176,0.7660954722264374,11
11.711951991998667,0.7719171072650107,11
11.721953658943157,0.7906565372202886,11
11.731955325887649,0.7619116395727553,11
11.741956992832138,0.7689961606329793,11
11.75195865977663,0.7485584339046194,11
11.761960326721121,0.7439751394013963,11
11.771961993665611,0.7325259487974922,11
11.781963660610103,0.7157720718453874,11
11.791965327554593,0.6677262031061851,11
11.801966994499084,0.6292529166265973,11
11.811968661443574,0.6175305053392878,11
11.821970328388065,0.5555968198970496,11
11.831971995332555,0.530169006624613,11
11.841973662277047,0.48080672769509986,11
11.851975329221537,0.4276443534581443,11
11.861976996166028,0.37048855334311254,11
11.87197866311052,0.3417579704903431,11
11.88198033005501,0.2971247215466332,11
11.891981996999501,0.26418033169450456,11
11.90198366394399,0.22047264526502033,11
11.911985330888482,0.16031205702512039,11
11.921986997832972,0.1484006794654618,11
11.931988664777464,0.12748835478688042,11
11.941990331721954,0.09859043753620535,11
11.951991998666445,0.08894668750348386,11
11.961993665610935,0.05604331504683318,11
11.971995332555426,0.031505229173812065,11
11.981996999499916,0.04137484486742503,11
11.991998666444408,0.017461619025394358,11
12.0020003333889,0.005606257988982421,11
12.01200200033339,-0.009860829789543038,11
12.02200366727788,-0.006331457026700729,11
12.03200533422237,0.003948870376074323,11
12.042007001166862,0.0063672559790903475,11
12.052008668111352,-0.00189491265059146,11
12.062010335055843,-0.002964437356258059,11
12.072012002000333,0.0006541680270594355,11
12.082013668944825,-0.009254036233017413,11
12.092015335889315,-0.005970540438992195,11
12.102017002833806,-0.024390279486143796,11
12.112018669778298,0.007971970133687212,11
12.122020336722787,-0.04429171387937257,11
12.132022003667279,-0.0454537725415573,11
12.142023670611769,-0.06740062835869709,11
12.15202533755626,-0.0777693827006377,11
12.16202700450075,-0.10256308270858819,11
12.172028671445242,-0.11206369626810994,11
12.182030338389731,-0.15124448451919634,11
12.192032005334223,-0.17639538581591965,11
12.202033672278713,-0.24099738979739677,11
12.212035339223204,-0.27100643073806197,11
12.222037006167696,-0.29398636628985503,11
12.232038673112186,-0.3383351756190398,11
12.242040340056677,-0.38138676639734914,11
12.252042007001167,-0.4312670048880735,11
12.262043673945659,-0.47040024549329107,11
12.272045340890148,-0.5258020661404874,11
12.28204700783464,-0.5677856733003495,11
12.29204867477913,-0.5974745775254198,11
12.302050341723621,-0.6297226081097862,11
12.312052008668111,-0.6708300732891077,11
12.322053675612603,-0.684403512436986,11
12.332055342557092,-0.7392536708361823,11
12.342057009501584,-0.7647427824079867,11
12.352058676446076,-0.7788068761860657,11
12.362060343390565,-0.7701610027549385,11
12.372062010335057,-0.7846102445744395,11
12.382063677279547,-0.7778254093068273,11
12.392065344224038,-0.7960763121822377,11
12.402067011168528,-0.7458662208490376,11
12.41206867811302,-0.7209964166758442,11
12.42207034505751,-0.7101085354692206,11
12.432072012002001,-0.6645425385858195,11
12.44207367894649,-0.6143811055338498,11
12.452075345890982,-0.5687530755747846,11
12.462077012835474,-0.5039462636101669,11
12.472078679779964,-0.4623696368487794,11
12.482080346724455,-0.39784955989351,11
12.492082013668945,-0.3256543270658447,11
12.502083680613437,-0.2461548472173843,11
12.512085347557926,-0.16949445922297432,11
12.522087014502418,-0.08293407907652427,11
12.532088681446908,-0.00034171139693864143,11
12.5420903483914,0.06484138723824655,11
12.552092015335889,0.1503476027954716,11
12.56209368228038,0.2100159892183941,11
12.572095349224872,0.3049352432836531,11
12.582097016169362,0.35489956671013057,11
12.592098683113853,0.4572990057711043,11
12.602100350058343,0.4834316812847072,11
12.612102017002835,0.566754499593515,11
12.622103683947325,0.6157824985040177,11
12.632105350891816,0.6231291486966104,11
12.642107017836306,0.6733613034458122,11
12.652108684780798,0.729323366742582,11
12.662110351725287,0.7415006927852026,11
12.672112018669779,0.7549458522472194,11
12.682113685614269,0.7697571203957629,11
12.69211535255876,0.788453863683054,11
12.702117019503252,0.7869712065036631,11
12.712118686447742,0.7729234127925655,11
12.722120353392233,0.759031165604487,11
12.732122020336723,0.7389051019349138,11
12.742123687281214,0.7236868016685685,11
12.752125354225704,0.6918378688297993,11
12.762127021170196,0.640310028189295,11
12.772128688114686,0.6094616156253612,11
12.782130355059177,0.5585361757138652,11
12.792132022003667,0.509100014862967,11
12.802133688948159,0.4800440300788461,11
12.81213535589265,0.4498443065980467,11
12.82213702283714,0.3985349548869255,11
12.832138689781631,0.3375142438734424,11
12.842140356726121,0.31217452676675983,11
12.852142023670613,0.276053395136514,11
12.862143690615103,0.2410550042984081,11
12.872145357559594,0.21098908332729463,11
12.882147024504084,0.14810470969433054,11
12.892148691448575,0.12981156162774085,11
12.902150358393065,0.09746782708492985,11
12.912152025337557,0.0908551103005509,11
12.922153692282048,0.05797952852100759,11
12.932155359226538,0.04761347812868869,11
12.94215702617103,0.028293699132150345,11
12.95215869311552,0.007574502682199138,11
12.962160360060011,0.010633021637638195,11
12.9721620270045,0.009620971068968365,11
12.982163693948992,-0.0028241842549739313,11
12.992165360893482,-0.00945085059574424,11
13.002167027837974,-0.006479343793257184,11
13.012168694782464,0.007434253796168457,11
13.022170361726955,-0.0006281937525109206,11
13.032172028671445,0.00906356160331758,11
13.042173695615936,0.007549120789160696,11
13.052175362560428,0.007977785853177119,11
13.062177029504918,-0.016748476087228164,11
13.07217869644941,-0.006440574578296299,11
13.0821803633939,-0.013708879520446181,11
13.09218203033839,-0.046539062631742914,11
13.10218369728288,-0.054649083832132156,11
13.112185364227372,-0.05040583758046249,11
13.122187031171862,-0.08155264687368947,11
13.132188698116353,-0.10666824406028175,11
13.142190365060843,-0.14771595266257137,11
13.152192032005335,-0.17457378850346914,11
13.162193698949826,-0.22818591547730716,11
13.172195365894316,-0.24349112463301423,11
13.182197032838808,-0.291778017155444,11
13.192198699783297,-0.32965273746456114,11
13.202200366727789,-0.3966731473372414,11
13.212202033672279,-0.42431341025856223,11
13.22220370061677,-0.46178028657016773,11
13.23220536756126,-0.5078522590188491,11
13.242207034505752,-0.5332920966230713,11
13.252208701450241,-0.583679284006035,11
13.262210368394733,-0.639079883015055,11
13.272212035339225,-0.6485303646703602,11
13.282213702283714,-0.689872495290756,11
13.292215369228206,-0.7233329928749433,11
13.302217036172696,-0.7393796960187073,11
13.312218703117187,-0.7567951739628818,11
13.322220370061677,-0.7704381385235499,11
13.332222037006169,-0.7770719856351972,11
13.342223703950658,-0.7622735111365849,11
13.35222537089515,-0.764892117888487,11
13.36222703783964,-0.7668498683969137,11
13.372228704784131,-0.732804974762151,11
13.382230371728621,-0.712844391476709,11
13.392232038673113,-0.6608061964678591,11
13.402233705617604,-0.6339682113508897,11
13.412235372562094,-0.5903339689639766,11
13.422237039506586,-0.5237458614596974,11
13.432238706451075,-0.4779456384690622,11
13.442240373395567,-0.4154843239664718,11
13.452242040340057,-0.33167581689646825,11
13.462243707284548,-0.2571751557131144,11
13.472245374229038,-0.19759182095032266,11
13.48224704117353,-0.122215863363455,11
13.49224870811802,-0.05178670908018083,11
13.502250375062511,0.04672992504443831,11
13.512252042007002,0.11921285312514548,11
13.522253708951492,0.2081002334489143,11
13.532255375895984,0.24614791241110656,11
13.542257042840474,0.3449506140193912,11
13.552258709784965,0.42267261814280077,11
13.562260376729455,0.47863061141530533,11
13.572262043673947,0.5167780915462238,11
13.582263710618436,0.5815265411973152,11
13.592265377562928,0.6316107024926763,11
13.602267044507418,0.6775725999925887,11
13.61226871145191,0.7030411632890049,11
13.6222703783964,0.7223659884358503,11
13.63227204534089,0.7635169656673474,11
13.642273712285382,0.7639704652457399,11
13.652275379229872,0.7781030146615343,11
13.662277046174363,0.7646730085514147,11
13.672278713118853,0.7926582165040092,11
13.682280380063345,0.7600737395286733,11
13.692282047007835,0.7519280076597962,11
13.702283713952326,0.715633503986859,11
13.712285380896816,0.6898103259509777,11
13.722287047841307,0.6517910656382996,11
13.732288714785797,0.6325119678336364,11
13.742290381730289,0.5814951328506638,11
13.75229204867478,0.5541353643040557,11
13.76229371561927,0.498039447397458,11
13.772295382563762,0.4798236486967824,11
13.782297049508252,0.4189539678863969,11
13.792298716452743,0.38627799589034373,11
13.802300383397233,0.32760566999014346,11
13.812302050341724,0.2962530480832001,11
13.822303717286214,0.26477443697821357,11
13.832305384230706,0.22000314918006902,11
13.842307051175196,0.16838638344740273,11
13.852308718119687,0.13038455075553,11
13.862310385064179,0.11269777274093254,11
13.872312052008668,0.0917587346051778,11
13.88231371895316,0.0759284418723928,11
13.89231538589765,0.05988408077725128,11
13.902317052842141,0.037268476362974284,11
13.912318719786631,0.010454259337344791,11
13.922320386731123,0.00630240279435974,11
13.932322053675612,0.007850357775218737,11
13.942323720620104,0.0005758462542062004,11
13.952325387564594,0.0074779233355046415,11
13.962327054509085,-0.005444417451753988,11
13.972328721453577,0.0071067324186763646,11
13.982330388398067,-0.0001912319135458022,11
13.992332055342558,-9.15099710453044e-05,11
14.002333722287048,-0.01914646709467403,11
14.01233538923154,0.0015091309898108479,11
14.02233705617603,0.006122455885244052,11
14.032338723120521,-0.010559689615189083,11
14.04234039006501,-0.00402800216612682,11
14.052342057009502,-0.023020567087273524,11
14.062343723953992,-0.04879517871384139,11
14.072345390898484,-0.0696061422808593,11
14.082347057842973,-0.09458581588761125,11
14.092348724787465,-0.10717819827180505,11
14.102350391731957,-0.11910088680723613,11
14.112352058676446,-0.1598462096576089,11
14.122353725620938,-0.20365419174813285,11
14.132355392565428,-0.22902491527227634,11
14.14235705950992,-0.26574802458784996,11
14.152358726454409,-0.28947559731484623,11
14.1623603933989,-0.35416340810291236,11
14.17236206034339,-0.38784480254086173,11
14.182363727287882,-0.44344119797738935,11
14.192365394232372,-0.4946347471602088,11
14.202367061176863,-0.507322049599488,11
14.212368728121355,-0.5767662281338465,11
14.222370395065845,-0.6149383937670461,11
14.232372062010336,-0.6629800321840925,11
14.242373728954826,-0.6687231804605785,11
14.252375395899318,-0.7091860641852266,11
14.262377062843807,-0.7491672532710059,11
14.272378729788299,-0.7591369632620262,11
14.282380396732789,-0.7717237031545825,11
14.29238206367728,-0.7784650954654052,11
14.30238373062177,-0.7790512072541771,11
14.312385397566262,-0.7782253725878542,11
14.322387064510753,-0.7639452020933167,11
14.332388731455243,-0.7592665404322072,11
14.342390398399735,-0.7211848913822273,11
14.352392065344224,-0.686069639780044,11
14.362393732288716,-0.6675355015611811,11
14.372395399233206,-0.5953468907972514,11
14.382397066177697,-0.5631094582408066,11
14.392398733122187,-0.4929225716963687,11
14.402400400066679,-0.42367280378947414,11
14.412402067011168,-0.38318709228996634,11
14.42240373395566,-0.31126849257631756,11
14.432405400900151,-0.2233896262195717,11
14.442407067844641,-0.15409398409329372,11
14.452408734789133,-0.05693485501629465,11
14.462410401733623,0.015187987359493624,11
14.472412068678114,0.08473062465309372,11
14.482413735622604,0.15270511888062593,11
14.492415402567095,0.2229828507743697,11
14.502417069511585,0.3158215766029951,11
14.512418736456077,0.37234484934572715,11
14.522420403400567,0.4537140071298619,11
14.532422070345058,0.5102546287231232,11
14.542423737289548,0.5610653456668849,11
14.55242540423404,0.6033631726600581,11
14.562427071178531,0.666860335245446,11
14.57242873812302,0.6840723002898003,11
14.582430405067512,0.7134252636144086,11
14.592432072012002,0.7361475781350022,11
14.602433738956494,0.7723069684421155,11
14.612435405900984,0.7607557067504224,11
14.622437072845475,0.7713247679040478,11
14.632438739789965,0.7698759966184999,11
14.642440406734456,0.7718017955389304,11
14.652442073678946,0.7668749084242913,11
14.662443740623438,0.7225799067391951,11
14.67244540756793,0.697757299504974,11
14.68244707451242,0.6683547920970916,11
14.69244874145691,0.6339978841417214,11
14.7024504084014,0.6150521419804461,11
14.712452075345892,0.558115413413375,11
14.722453742290382,0.5151903260133446,11
14.732455409234873,0.4808606857370919,11
14.742457076179363,0.4319039444541766,11
14.752458743123855,0.36911041713604864,11
14.762460410068345,0.35891081860404683,11
14.772462077012836,0.28323320517432027,11
14.782463743957328,0.26293404577647456,11
14.792465410901817,0.2080333851355779,11
14.802467077846309,0.20218839736008123,11
14.812468744790799,0.14518311124028066,11
14.82247041173529,0.11236026562801146,11
14.83247207867978,0.11627530427569716,11
14.842473745624272,0.10454545147179885,11
14.852475412568761,0.05980237739023532,11
14.862477079513253,0.04257517183387292,11
14.872478746457743,0.016164841066393633,11
14.882480413402234,0.020519852329659718,11
14.892482080346724,0.006741223885323089,11
14.902483747291216,-0.01226490064893316,11
14.912485414235707,-0.0006064431644273033,11
14.922487081180197,0.008681728329179106,11
14.932488748124689,0.009120020982955808,11
14.942490415069178,0.014694808799011895,11
14.95249208201367,-0.012999070858203515,11
14.96249374895816,-0.004159736297807818,11
14.972495415902651,-0.01993847938637547,11
14.982497082847141,-0.006313874028059317,11
14.992498749791633,0.001686198318219978,11
15.002500416736122,-0.02228986189828804,11
15.012502083680614,-0.02288023776996198,11
15.022503750625106,-0.0283781709787752,11
15.032505417569595,-0.02079722588088502,11
15.042507084514087,-0.0735411280926989,11
15.052508751458577,-0.09500950384660369,11
15.062510418403068,-0.12024275712199459,11
15.072512085347558,-0.1571221410166679,11
15.08251375229205,-0.1692873662797104,11
15.09251541923654,-0.21342635813121957,11
15.102517086181031,-0.25693465571324503,11
15.11251875312552,-0.30008638834354134,11
15.122520420070012,-0.34036361984805924,11
15.132522087014504,-0.37653112359346264,11
15.142523753958994,-0.4315692882624048,11
15.152525420903485,-0.4670109063713087,11
15.162527087847975,-0.5055782851807764,11
15.172528754792467,-0.5522543193669373,11
15.182530421736956,-0.5712369916156731,11
15.192532088681448,-0.6385657370125215,11
15.202533755625938,-0.6697875112110779,11
15.21253542257043,-0.7119781993811449,11
15.222537089514919,-0.6965814800460786,11
15.23253875645941,-0.7353687268383423,11
15.2425404234039,-0.7689518248756577,11
15.252542090348392,-0.7870091533017619,11
15.262543757292883,-0.7791393461246257,11
15.272545424237373,-0.7806106708271598,11
15.282547091181865,-0.7746984380171933,11
15.292548758126355,-0.7673749490297546,11
15.302550425070846,-0.7358691014401498,11
15.312552092015336,-0.6951185142990475,11
15.322553758959828,-0.6655141900952888,11
15.332555425904317,-0.6234330953796922,11
15.342557092848809,-0.5652663055547915,11
15.352558759793299,-0.5156594072308128,11
15.36256042673779,-0.47058158968226693,11
15.372562093682282,-0.40489269222930563,11
15.382563760626772,-0.33910717249815736,11
15.392565427571263,-0.26019433333145897,11
15.402567094515753,-0.18064978448345964,11
15.412568761460244,-0.10601032924861746,11
15.422570428404734,-0.019941007748837822,11
15.432572095349226,0.050848573662083424,11
15.442573762293716,0.12249577964468084,11
15.452575429238207,0.21252022605635498,11
15.462577096182697,0.26880490099500287,11
15.472578763127188,0.35229608761902664,11
15.48258043007168,0.4182060389400081,11
15.49258209701617,0.48707627019546246,11
15.502583763960661,0.531908921030687,11
15.512585430905151,0.5879516924024756,11
15.522587097849643,0.6315931006540475,11
15.532588764794133,0.6890633646234711,11
15.542590431738624,0.6987527910501943,11
15.552592098683114,0.7331272722868023,11
15.562593765627605,0.7479605252114607,11
15.572595432572095,0.7658988263546147,11
15.582597099516587,0.7781622623262849,11
15.592598766461077,0.7757739260029575,11
15.602600433405568,0.7708476009175327,11
15.61260210035006,0.7573065920640975,11
15.62260376729455,0.7374034392870501,11
15.632605434239041,0.7113610168688616,11
15.64260710118353,0.6971580701716477,11
15.652608768128022,0.6269947130378735,11
15.662610435072512,0.6274166302863188,11
15.672612102017004,0.5801256345631927,11
15.682613768961494,0.5100966636088138,11
15.692615435905985,0.5002687790903934,11
15.702617102850475,0.44972492920336177,11
15.712618769794966,0.4133098861715627,11
15.722620436739458,0.3532149004612019,11
15.732622103683948,0.3368194681391066,11
15.74262377062844,0.2590884220778719,11
15.752625437572929,0.23670037449455814,11
15.76262710451742,0.2111365899446291,11
15.77262877146191,0.16561192037800881,11
15.782630438406402,0.10760646888850277,11
15.792632105350892,0.10826889476840494,11
15.802633772295383,0.09069766130461276,11
15.812635439239873,0.05026107145243798,11
15.822637106184365,0.023139682826065162,11
15.832638773128856,0.03925377419264284,11
15.842640440073346,0.017239943664327885,11
15.852642107017838,0.015468328396871157,11
15.862643773962327,0.019099746594570477,11
15.872645440906819,-0.005228477494004161,11
15.882647107851309,0.0085037387294234,11
15.8926487747958,0.0007919872942223188,11
15.90265044174029,0.01019842040000284,11
15.912652108684782,-0.006906343567753163,11
15.922653775629271,-0.018296458422902322,11
15.932655442573763,-0.005440623351371388,11
15.942657109518253,-0.008490889733714993,11
15.952658776462744,-0.006314098918750065,11
15.962660443407236,-0.01485299467542691,11
15.972662110351726,-0.02255707775102551,11
15.982663777296217,-0.03203778443986503,11
15.992665444240707,-0.053773001705155886,11
16.002667111185197,-0.06199226212363387,11
16.01266877812969,-0.0867057139375829,11
16.02267044507418,-0.11321405245009437,11
16.03267211201867,-0.13155511143972004,11
16.04267377896316,-0.15837880924189862,11
16.052675445907653,-0.19400105537936813,11
16.062677112852143,-0.23644158159952638,11
16.072678779796632,-0.2804221591905388,11
16.082680446741126,-0.3305097812192197,11
16.092682113685616,-0.3819325981186014,11
16.102683780630105,-0.4096980501782179,11
16.112685447574595,-0.4431450707007268,11
16.12268711451909,-0.48600072116693005,11
16.132688781463578,-0.5469664853339591,11
16.142690448408068,-0.5788510545140638,11
16.152692115352558,-0.6140221544441443,11
16.16269378229705,-0.6481606522751805,11
16.17269544924154,-0.6747194847121651,11
16.18269711618603,-0.7093534339850169,11
16.192698783130524,-0.7343069492382797,11
16.202700450075014,-0.7593105282059889,11
16.212702117019504,-0.7611468246176951,11
16.222703783963993,-0.7866688216662688,11
16.232705450908487,-0.7807505564920232,11
16.242707117852976,-0.7883805215137849,11
16.252708784797466,-0.7857115469157081,11
16.262710451741956,-0.7433856405509442,11
16.27271211868645,-0.7143663229543737,11
16.28271378563094,-0.6900111128131879,11
16.29271545257543,-0.6451568660407936,11
16.302717119519922,-0.5833782422331828,11
16.312718786464412,-0.535183550426669,11
16.322720453408902,-0.49598547657906344,11
16.33272212035339,-0.4439172510959343,11
16.342723787297885,-0.333914190247927,11
16.352725454242375,-0.2915012677842193,11
16.362727121186865,-0.2216270143353502,11
16.372728788131354,-0.14037548945059883,11
16.382730455075848,-0.053876439244467986,11
16.392732122020337,0.019531395685487618,11
16.402733788964827,0.10743881305545516,11
16.41273545590932,0.1815485197332296,11
16.42273712285381,0.24791083165112787,11
16.4327387897983,0.3365258601110978,11
16.44274045674279,0.4072789638359169,11
16.452742123687283,0.4404433243186975,11
16.462743790631773,0.4941211914235632,11
16.472745457576263,0.5929836519360567,11
16.482747124520753,0.6087191302887468,11
16.492748791465246,0.6736510389183645,11
16.502750458409736,0.6968398628061385,11
16.512752125354226,0.7469087083758482,11
16.522753792298715,0.7676457396619225,11
16.53275545924321,0.7795622914245774,11
16.5427571261877,0.7729887593812415,11
16.55275879313219,0.7853220503526611,11
16.56276046007668,0.7714976090171124,11
16.57276212702117,0.7627060942497738,11
16.58276379396566,0.7448009405869298,11
16.59276546091015,0.7163787115092178,11
16.602767127854644,0.6997242563763345,11
16.612768794799134,0.6646392834453242,11
16.622770461743624,0.6393441452012439,11
16.632772128688114,0.5837639229789511,11
16.642773795632607,0.5500768341580167,11
16.652775462577097,0.5074308804937315,11
16.662777129521587,0.47409735182420104,11
16.67277879646608,0.42567967497210185,11
16.68278046341057,0.3710478878410596,11
16.69278213035506,0.3168515453051904,11
16.70278379729955,0.3266868552226071,11
16.712785464244043,0.24793920681018738,11
16.722787131188532,0.23352860083696647,11
16.732788798133022,0.17875745859095457,11
16.742790465077512,0.14996175328742,11
16.752792132022005,0.11876126646449574,11
16.762793798966495,0.1067454264014626,11
16.772795465910985,0.06703591428886353,11
16.782797132855478,0.07817781111620545,11
16.792798799799968,0.016696276422360556,11
16.802800466744458,0.032095172593835375,11
16.812802133688947,0.0033965850460713556,11
16.82280380063344,0.011130537209590443,11
16.83280546757793,0.004165931313034251,11
16.84280713452242,0.00802976649620344,11
16.85280880146691,-0.0016754158921871419,11
16.862810468411404,-0.006253102907116748,11
16.872812135355893,0.004142574038915839,11
16.882813802300383,0.00023383202902337009,11
16.892815469244876,0.01040333329311948,11
16.902817136189366,-0.00011783821103553875,11
16.912818803133856,-0.014884068030984179,11
16.922820470078346,-0.02248953113051627,11
16.93282213702284,-0.02790454010916671,11
16.94282380396733,-0.02464460516913073,11
16.95282547091182,-0.02837448930057107,11
16.96282713785631,-0.058270184215095736,11
16.972828804800802,-0.08080928282948048,11
16.98283047174529,-0.07972706955942123,11
16.99283213868978,-0.12365692958476034,11
17.002833805634275,-0.14110031401812312,11
17.012835472578764,-0.18570809213918962,11
17.022837139523254,-0.21629537762237408,11
17.032838806467744,-0.2546170740930366,11
17.042840473412237,-0.3091531290706007,11
17.052842140356727,-0.3237775716513804,11
17.062843807301217,-0.3895842479667136,11
17.072845474245707,-0.4374413126115137,11
17.0828471411902,-0.45932591350439955,11
17.09284880813469,-0.4996708301639123,11
17.10285047507918,-0.5594449805984599,11
17.112852142023673,-0.5929393565230258,11
17.122853808968163,-0.6407279329253518,11
17.132855475912653,-0.6648891233350491,11
17.142857142857142,-0.7123537968756581,11
17.152858809801636,-0.7395181141114486,11
17.162860476746125,-0.752311394851529,11
17.172862143690615,-0.7725945813639077,11
17.182863810635105,-0.7514862080754763,11
17.1928654775796,-0.7854547544505731,11
17.202867144524088,-0.7796340669172653,11
17.212868811468578,-0.7742502248167633,11
17.222870478413068,-0.7523294690003672,11
17.23287214535756,-0.738548539696535,11
17.24287381230205,-0.6975144715641588,11
17.25287547924654,-0.6508713330990462,11
17.262877146191034,-0.6186937642670373,11
17.272878813135524,-0.5605299481306439,11
17.282880480080014,-0.5074719237194811,11
17.292882147024503,-0.4474467884195745,11
17.302883813968997,-0.380166347059998,11
17.312885480913486,-0.31468024488083995,11
17.322887147857976,-0.24249724432451172,11
17.332888814802466,-0.17046466678206282,11
17.34289048174696,-0.08127385640210624,11
17.35289214869145,-0.005601908700268997,11
17.36289381563594,0.06039925888216025,11
17.372895482580432,0.15002027542229598,11
17.382897149524922,0.22431737567062082,11
17.392898816469412,0.29199855005989045,11
17.4029004834139,0.36470154912648334,11
17.412902150358395,0.4387829833469484,11
17.422903817302885,0.4854171996985008,11
17.432905484247375,0.5560811319501076,11
17.442907151191864,0.6109483694998175,11
17.452908818136358,0.6423121562645207,11
17.462910485080847,0.683768241396826,11
17.472912152025337,0.7266800542042773,11
17.48291381896983,0.7354590622649424,11
17.49291548591432,0.752051810578948,11
17.50291715285881,0.7757306888932191,11
17.5129188198033,0.7633552278434573,11
17.522920486747793,0.78098695687031,11
17.532922153692283,0.7751325326651611,11
17.542923820636773,0.7619559896447459,11
17.552925487581263,0.726903104134597,11
17.562927154525756,0.7037237333810539,11
17.572928821470246,0.6805450447576951,11
17.582930488414735,0.6336116850169997,11
17.59293215535923,0.6226856442285196,11
17.60293382230372,0.5843455273805779,11
17.61293548924821,0.5338081338628021,11
17.622937156192698,0.4851938832001767,11
17.63293882313719,0.4554610633536787,11
17.64294049008168,0.3882839185230618,11
17.65294215702617,0.350807815611564,11
17.66294382397066,0.322717398259479,11
17.672945490915154,0.2696862056730603,11
17.682947157859644,0.23376788559151934,11
17.692948824804134,0.18870764460578687,11
17.702950491748627,0.1679330527112555,11
17.712952158693117,0.1300493778800665,11
17.722953825637607,0.10042567305663205,11
17.732955492582096,0.0848527093723183,11
17.74295715952659,0.05401276893169017,11
17.75295882647108,0.02782538249415107,11
17.76296049341557,0.04166324737303688,11
17.77296216036006,0.014785576115862982,11
17.782963827304552,0.00285486118101062,11
17.792965494249042,0.018292386685667038,11
17.802967161193532,0.009425688057546032,11
17.812968828138025,0.0011239708440863687,11
17.822970495082515,-0.003727279877129679,11
17.832972162027005,0.014561404567389242,11
17.842973828971495,0.018182812536506388,11
17.852975495915988,0.0025897363944372568,11
17.862977162860478,-0.013703042779907873,11
17.872978829804968,-0.006991276853321522,11
17.882980496749457,-0.008903636214441318,11
17.89298216369395,-0.008202032823952609,11
17.90298383063844,-0.0234648433161549,11
17.91298549758293,-0.05736798812079062,11
17.92298716452742,-0.06694526754801752,11
17.932988831471913,-0.0771259384276685,11
17.942990498416403,-0.08679772499805546,11
17.952992165360893,-0.12903707246942506,11
17.962993832305386,-0.13848376238357987,11
17.972995499249876,-0.17923200882051216,11
17.982997166194366,-0.2021909170066239,11
17.992998833138856,-0.2530095299263076,11
18.00300050008335,-0.2806188174592044,11
18.01300216702784,-0.3160640327550328,11
18.02300383397233,-0.35734493537438705,11
18.03300550091682,-0.4074735159286975,11
18.04300716786131,-0.4548257527272781,11
18.0530088348058,-0.49327994145378623,11
18.06301050175029,-0.5503263549917988,11
18.073012168694785,-0.5909838945509519,11
18.083013835639274,-0.6138101053931193,11
18.093015502583764,-0.6665271253808022,11
18.103017169528254,-0.6799413746923499,11
18.113018836472747,-0.708633616372441,11
18.123020503417237,-0.7363497344461649,11
18.133022170361727,-0.7489026981416959,11
18.143023837306217,-0.7618861742818243,11
18.15302550425071,-0.7940709892802716,11
18.1630271711952,-0.785870991416706,11
18.17302883813969,-0.7605073107506158,11
18.183030505084183,-0.7617878378394215,11
18.193032172028673,-0.734267478876183,11
18.203033838973163,-0.7077075978619523,11
18.213035505917652,-0.6778060427427917,11
18.223037172862146,-0.6292401529290478,11
18.233038839806635,-0.596367479852881,11
18.243040506751125,-0.5503654135562578,11
18.253042173695615,-0.4700074627017642,11
18.26304384064011,-0.41084339320293417,11
18.273045507584598,-0.3609172031773858,11
18.283047174529088,-0.26238891120827046,11
18.29304884147358,-0.2008058291562413,11
18.30305050841807,-0.13049014382294827,11
18.31305217536256,-0.04937752875738262,11
18.32305384230705,0.03952322204965332,11
18.333055509251544,0.11445097405676354,11
18.343057176196034,0.20714252136148992,11
18.353058843140523,0.2689899616834969,11
18.363060510085013,0.33475296367035245,11
18.373062177029507,0.4138773706058982,11
18.383063843973996,0.4647146190573015,11
18.393065510918486,0.5220507492831918,11
18.40306717786298,0.5732111674196712,11
18.41306884480747,0.6211793902246229,11
18.42307051175196,0.6626358710978721,11
18.43307217869645,0.707821047203896,11
18.443073845640942,0.7390915407483388,11
18.453075512585432,0.7614348108449542,11
18.463077179529922,0.7606205131358714,11
18.47307884647441,0.7731189847122677,11
18.483080513418905,0.7680825199252023,11
18.493082180363395,0.7496337057574043,11
18.503083847307884,0.7612785396316324,11
18.513085514252378,0.7491521102678821,11
18.523087181196868,0.7140439040824118,11
18.533088848141357,0.6821230669308215,11
18.543090515085847,0.6545508683659648,11
18.55309218203034,0.6042810353834295,11
18.56309384897483,0.5888962991033156,11
18.57309551591932,0.5307974888045603,11
18.58309718286381,0.5061629321221984,11
18.593098849808303,0.4522058672441212,11
18.603100516752793,0.4059170551064358,11
18.613102183697283,0.3713041991559095,11
18.623103850641776,0.3166108357875884,11
18.633105517586266,0.277629781494924,11
18.643107184530756,0.22014960248318188,11
18.653108851475245,0.21586775856592016,11
18.66311051841974,0.1738567769743186,11
18.67311218536423,0.15782259656750325,11
18.68311385230872,0.10421543353641444,11
18.693115519253208,0.09489885715625085,11
18.7031171861977,0.08490782064296183,11
18.71311885314219,0.042607027440861166,11
18.72312052008668,0.04835591975529035,11
18.73312218703117,0.01897613013574593,11
18.743123853975664,0.01719670002182133,11
18.753125520920154,0.011776770676360663,11
18.763127187864644,0.005759054825656398,11
18.773128854809137,-0.0066963254309343415,11
18.783130521753627,0.009542726205866037,11
18.793132188698117,-0.012530792901964941,11
18.803133855642606,0.009031683084337702,11
18.8131355225871,0.02328948552111089,11
18.82313718953159,0.009695895334049803,11
18.83313885647608,-0.007398822455925572,11
18.84314052342057,-0.01860053106118369,11
18.853142190365062,-0.007775979845741438,11
18.863143857309552,-0.029264321504394307,11
18.873145524254042,-0.03865114068581536,11
18.883147191198535,-0.04187145550280646,11
18.893148858143025,-0.06533193834840731,11
18.903150525087515,-0.06701980783663278,11
18.913152192032005,-0.11372535371756358,11
18.923153858976498,-0.13283968656167916,11
18.933155525920988,-0.13226720370218037,11
18.943157192865478,-0.18944026477218373,11
18.953158859809967,-0.2362286392938824,11
18.96316052675446,-0.28702228964823495,11
18.97316219369895,-0.2970971267209905,11
18.98316386064344,-0.37258995084050744,11
18.993165527587934,-0.40261570805259267,11
19.003167194532423,-0.4205048399315095,11
19.013168861476913,-0.46719971484958134,11
19.023170528421403,-0.5285160815923525,11
19.033172195365896,-0.5637081130940379,11
19.043173862310386,-0.5987878176867965,11
19.053175529254876,-0.6409339984544433,11
19.063177196199366,-0.6801046008704226,11
19.07317886314386,-0.7193950829878877,11
19.08318053008835,-0.732871753177308,11
19.09318219703284,-0.7443445298979143,11
19.103183863977332,-0.7597127134189031,11
19.11318553092182,-0.7690456269769577,11
19.12318719786631,-0.7810487113170688,11
19.1331888648108,-0.7611172383996951,11
19.143190531755295,-0.761145331873176,11
19.153192198699784,-0.7469015939272157,11
19.163193865644274,-0.7282891517555096,11
19.173195532588764,-0.6993458743950134,11
19.183197199533257,-0.6460004622579447,11
19.193198866477747,-0.5859830235011252,11
19.203200533422237,-0.55485573083064,11
19.21320220036673,-0.4936323159343822,11
19.22320386731122,-0.45836834987517183,11
19.23320553425571,-0.3561792034361611,11
19.2432072012002,-0.29341331377956315,11
19.253208868144693,-0.22736042235098824,11
19.263210535089183,-0.15611082034780502,11
19.273212202033672,-0.07273387833016315,11
19.283213868978162,0.011609516785781645,11
19.293215535922656,0.086617019287456,11
19.303217202867145,0.16967813179640218,11
19.313218869811635,0.23610761652270879,11
19.32322053675613,0.30449220642778757,11
19.33322220370062,0.36207652585303823,11
19.343223870645108,0.44905247479792576,11
19.353225537589598,0.5076477178228431,11
19.36322720453409,0.5727856115408838,11
19.37322887147858,0.6087227813004664,11
19.38323053842307,0.6420477936997694,11
19.39323220536756,0.6904067304275058,11
19.403233872312054,0.7372155358034493,11
19.413235539256544,0.7584687784466854,11
19.423237206201033,0.7695440606305776,11
19.433238873145523,0.7937832991034992,11
19.443240540090017,0.7868545854154687,11
19.453242207034506,0.7684324076523759,11
19.463243873978996,0.7688298561302435,11
19.47324554092349,0.7631328224048721,11
19.48324720786798,0.7374543840743096,11
19.49324887481247,0.7156937651284778,11
19.50325054175696,0.6727019185482604,11
19.513252208701452,0.6302375114038222,11
19.523253875645942,0.582172873526831,11
19.53325554259043,0.5728136981295732,11
19.54325720953492,0.5297474540596152,11
19.553258876479415,0.4863879546258922,11
19.563260543423905,0.4231240280351014,11
19.573262210368394,0.395225602860029,11
19.583263877312888,0.35971999917139835,11
19.593265544257378,0.30836352144422535,11
19.603267211201867,0.26383661102989064,11
19.613268878146357,0.21668156577091072,11
19.62327054509085,0.193299970999183,11
19.63327221203534,0.15238254228088166,11
19.64327387897983,0.12998485114998584,11
19.65327554592432,0.09915381669733284,11
19.663277212868813,0.07228737087158864,11
19.673278879813303,0.05218774215032603,11
19.683280546757793,0.0185844762684181,11
19.693282213702286,0.020063220779922262,11
19.703283880646776,0.026748786847343296,11
19.713285547591266,0.007266291182634785,11
19.723287214535755,-0.0016259818516047037,11
19.73328888148025,-0.021427003327940803,11
19.74329054842474,-0.010178582827743619,11
19.75329221536923,-0.003665833615886762,11
19.763293882313718,-0.0034458532780379638,11
19.77329554925821,0.0008109796219604155,11
19.7832972162027,0.016763372924510272,11
19.79329888314719,0.002788794503446046,11
19.803300550091684,-0.01153490205215434,11
19.813302217036174,-0.019720003822672343,11
19.823303883980664,-0.011281690559723681,11
19.833305550925154,-0.02783442117816841,11
19.843307217869647,-0.04264072858174219,11
19.853308884814137,-0.05723810774029331,11
19.863310551758627,-0.07166919907711351,11
19.873312218703116,-0.09883694483481612,11
19.88331388564761,-0.12276178153792112,11
19.8933155525921,-0.1315680007507879,11
19.90331721953659,-0.16733081603526495,11
19.913318886481083,-0.20719972357043284,11
19.923320553425572,-0.2504847273818683,11
19.933322220370062,-0.3018514870951175,11
19.943323887314552,-0.32935657286601794,11
19.953325554259045,-0.36854454979642903,11
19.963327221203535,-0.4250088037111861,11
19.973328888148025,-0.46177505945120334,11
19.983330555092515,-0.5060854506840223,11
19.993332222037008,-0.5567638349968943,11
20.003333888981498,-0.5707565069283609,11
20.013335555925988,-0.6415198175543068,11
20.02333722287048,-0.6528422092674073,11
20.03333888981497,-0.6936874587084464,11
20.04334055675946,-0.7184343128249809,11
20.05334222370395,-0.738337745777585,11
20.063343890648444,-0.7911722126725667,11
20.073345557592933,-0.7871562918475357,11
20.083347224537423,-0.7813687127035641,11
20.093348891481913,-0.7596007749646342,11
20.103350558426406,-0.7705262534276075,11
20.113352225370896,-0.7538321633900716,11
20.123353892315386,-0.7286774581428912,11
20.133355559259876,-0.706075376338244,11
20.14335722620437,-0.662330204848771,11
20.15335889314886,-0.6159309467876932,11
20.16336056009335,-0.5736309119966861,11
20.173362227037842,-0.5073799678345368,11
20.18336389398233,-0.48033445937341973,11
20.19336556092682,-0.3959433430889647,11
20.20336722787131,-0.32896600857508135,11
20.213368894815805,-0.2703214627970809,11
20.223370561760294,-0.20047126538103924,11
20.233372228704784,-0.0918995997148501,11
20.243373895649274,-0.030320358330392153,11
20.253375562593767,0.06252367316671269,11
20.263377229538257,0.12013348322427791,11
20.273378896482747,0.21080649110986074,11
20.28338056342724,0.2906281845326164,11
20.29338223037173,0.3526625618237852,11
20.30338389731622,0.4042384455046498,11
20.31338556426071,0.4885349173456768,11
20.323387231205203,0.5465414647569947,11
20.333388898149693,0.5887854430189979,11
20.343390565094182,0.6546428513798529,11
20.353392232038672,0.664930147891208,11
20.363393898983166,0.7055879492482418,11
20.373395565927655,0.747892242617269,11
20.383397232872145,0.7448422483287297,11
20.39339889981664,0.7786076810178079,11
20.40340056676113,0.777713781925601,11
20.413402233705618,0.7618749839104821,11
20.423403900650108,0.7629085491944805,11
20.4334055675946,0.7415860563631775,11
20.44340723453909,0.7146875085603175,11
20.45340890148358,0.7300066218618559,11
20.46341056842807,0.6669339806946494,11
20.473412235372564,0.6642205632106989,11
20.483413902317054,0.6106354324372136,11
20.493415569261543,0.5715468729023074,11
20.503417236206037,0.5227331008412901,11
20.513418903150527,0.4917394818120049,11
20.523420570095016,0.4436846606517191,11
20.533422237039506,0.39973616515604504,11
20.543423903984,0.36279001980635434,11
20.55342557092849,0.3120412956575485,11
20.56342723787298,0.2953029377295669,11
20.57342890481747,0.23859060243283708,11
20.583430571761962,0.20946981439520804,11
20.593432238706452,0.18395818393489782,11
20.60343390565094,0.11852246817039136,11
20.613435572595435,0.12833914833445736,11
20.623437239539925,0.08552870606267497,11
20.633438906484415,0.0732527932139735,11
20.643440573428904,0.03825127193293841,11
20.653442240373398,0.015147377573913802,11
20.663443907317887,0.017809404125455168,11
20.673445574262377,0.009967387158518123,11
20.683447241206867,0.005718435897439259,11
20.69344890815136,0.0004592519111432545,11
20.70345057509585,-0.005770621368256625,11
20.71345224204034,0.006222794002944089,11
20.723453908984833,0.0034919981131521223,11
20.733455575929323,0.004759771361806324,11
20.743457242873813,-0.005634750931792236,11
20.753458909818303,0.003959221283564247,11
20.763460576762796,0.01676297281259231,11
20.773462243707286,-0.0063027181216631385,11
20.783463910651776,-0.012349661447882132,11
20.793465577596265,-0.023419375853164337,11
20.80346724454076,-0.03368560007339049,11
20.81346891148525,-0.044194681407387436,11
20.82347057842974,-0.07762218666215112,11
20.83347224537423,-0.09122562673824705,11
20.84347391231872,-0.105059364187987,11
20.85347557926321,-0.1453165835278026,11
20.8634772462077,-0.1928509080037264,11
20.873478913152194,-0.21363132064950283,11
20.883480580096684,-0.2495032302726603,11
20.893482247041174,-0.26879062472941034,11
20.903483913985664,-0.32690207012438227,11
20.913485580930157,-0.36911059218872955,11
20.923487247874647,-0.39106654188254814,11
20.933488914819137,-0.43785999577403356,11
20.943490581763626,-0.48468250666421664,11
20.95349224870812,-0.5539647722254475,11
20.96349391565261,-0.5857903570428069,11
20.9734955825971,-0.6051886473817735,11
20.983497249541593,-0.6570245488019854,11
20.993498916486082,-0.6892252261098979,11
21.003500583430572,-0.7087148837749219,11
21.013502250375062,-0.7340016451438213,11
21.023503917319555,-0.7539882237180091,11
21.033505584264045,-0.7529067945198757,11
21.043507251208535,-0.7676822540310448,11
21.053508918153025,-0.766642652530684,11
21.063510585097518,-0.7663063030290223,11
21.073512252042008,-0.7616238484157241,11
21.083513918986498,-0.7591480572633869,11
21.09351558593099,-0.7125034365361156,11
21.10351725287548,-0.6877846650059602,11
21.11351891981997,-0.6383998687340727,11
21.12352058676446,-0.5861680635240402,11
21.133522253708954,-0.535995602628202,11
21.143523920653443,-0.46543572535393024,11
21.153525587597933,-0.43094988200985757,11
21.163527254542423,-0.36126524394925785,11
21.173528921486916,-0.29092926594884316,11
21.183530588431406,-0.20418930516901782,11
21.193532255375896,-0.13122142282449162,11
21.20353392232039,-0.06488219108735238,11
21.21353558926488,0.01556704818102533,11
21.22353725620937,0.09282009391447035,11
21.23353892315386,0.17383634046841506,11
21.243540590098352,0.24779814605303604,11
21.25354225704284,0.32189538541350843,11
21.26354392398733,0.3923595021862063,11
21.27354559093182,0.46825477704405116,11
21.283547257876315,0.5219379514928701,11
21.293548924820804,0.5666792103563583,11
21.303550591765294,0.6391672995757747,11
21.313552258709787,0.6762130581383982,11
21.323553925654277,0.7068282317812611,11
21.333555592598767,0.7237562443616282,11
21.343557259543257,0.7381065502794139,11
21.35355892648775,0.778149680298269,11
21.36356059343224,0.7871945028668572,11
21.37356226037673,0.7991519982007973,11
21.38356392732122,0.759636207255744,11
21.393565594265713,0.7745339688326212,11
21.403567261210203,0.7416768296622182,11
21.413568928154692,0.7320314934032113,11
21.423570595099186,0.6828625658582194,11
21.433572262043675,0.6645085046154597,11
21.443573928988165,0.646798730784781,11
21.453575595932655,0.6061433826012271,11
21.46357726287715,0.5537420405636698,11
21.473578929821638,0.513527002986295,11
21.483580596766128,0.44861994318295084,11
21.493582263710618,0.4182828304430291,11
21.50358393065511,0.3571617014131911,11
21.5135855975996,0.30546685987636407,11
21.52358726454409,0.2966683214814859,11
21.533588931488584,0.27050463896164595,11
21.543590598433074,0.223264097961983,11
21.553592265377564,0.17954442047337485,11
21.563593932322053,0.14201960855381549,11
21.573595599266547,0.13439123496682806,11
21.583597266211036,0.0891590738394694,11
21.593598933155526,0.060770928146360384,11
21.603600600100016,0.04869675944481629,11
21.61360226704451,0.0290621151657278,11
21.623603933989,0.02423503019424882,11
21.63360560093349,0.030385049067019394,11
21.64360726787798,-0.0023128797785792726,11
21.653608934822472,0.01901204365046461,11
21.663610601766962,0.011339870805058048,11
21.67361226871145,-0.004172421695317318,11
21.683613935655945,-0.014567682361638308,11
21.693615602600435,0.017986275479794027,11
21.703617269544925,-0.012719861579283162,11
21.713618936489414,0.002966753830955633,11
21.723620603433908,-0.020771895940347927,11
21.733622270378397,-0.02259091711853157,11
21.743623937322887,-0.01627371785144421,11
21.753625604267377,-0.016891236000705072,11
21.76362727121187,-0.038755985823328995,11
21.77362893815636,-0.046750531139163526,11
21.78363060510085,-0.07168461909552239,11
21.793632272045343,-0.08519599515986971,11
21.803633938989833,-0.09589608776133178,11
21.813635605934323,-0.129762031542406,11
21.823637272878813,-0.15017717050640134,11
21.833638939823306,-0.18005676683248845,11
21.843640606767796,-0.2329540208239812,11
21.853642273712286,-0.24923211484181929,11
21.863643940656775,-0.2896892282362664,11
21.87364560760127,-0.35124691317945794,11
21.88364727454576,-0.3820120969581927,11
21.893648941490248,-0.4493608195535677,11
21.90365060843474,-0.4696939766978515,11
21.91365227537923,-0.5236068356281888,11
21.92365394232372,-0.568785506169129,11
21.93365560926821,-0.5951855026299814,11
21.943657276212704,-0.662760530678772,11
21.953658943157194,-0.6903093666884247,11
21.963660610101684,-0.7055666098619717,11
21.973662277046174,-0.7340082967958694,11
21.983663943990667,-0.7435949608943124,11
21.993665610935157,-0.7682021976760595,11
22.003667277879646,-0.7709196310923387,11
22.01366894482414,-0.7906009994138127,11
22.02367061176863,-0.7746272634016401,11
22.03367227871312,-0.7711364079725171,11
22.04367394565761,-0.7419622155920037,11
22.053675612602103,-0.7247798620859796,11
22.063677279546592,-0.7014365406976182,11
22.073678946491082,-0.6491506041988238,11
22.083680613435572,-0.6348732394937914,11
22.093682280380065,-0.5697514815635509,11
22.103683947324555,-0.5155934962236958,11
22.113685614269045,-0.45019981513161106,11
22.123687281213538,-0.3661695126029566,11
22.133688948158028,-0.3164657518354431,11
22.143690615102518,-0.241504264846922,11
22.153692282047007,-0.17268813316881085,11
22.1636939489915,-0.07981049204546359,11
22.17369561593599,-0.01037123622718272,11
22.18369728288048,0.06561307981449001,11
22.19369894982497,0.15271024876306843,11
22.203700616769463,0.23270846571547346,11
22.213702283713953,0.28292525759551934,11
22.223703950658443,0.3808058295866417,11
22.233705617602936,0.4361246243775248,11
22.243707284547426,0.49163906332861335,11
22.253708951491916,0.5538734252573344,11
22.263710618436406,0.614849789422614,11
22.2737122853809,0.6630884617029789,11
22.28371395232539,0.675295323746846,11
22.29371561926988,0.715085452869946,11
22.30371728621437,0.7452303855309395,11
22.313718953158862,0.777198344681139,11
22.32372062010335,0.7786168867978955,11
22.33372228704784,0.7690250309360013,11
22.34372395399233,0.7768370000668783,11
22.353725620936824,0.7814458617454574,11
22.363727287881314,0.7522009508561068,11
22.373728954825804,0.7286174326423669,11
22.383730621770297,0.7132276536831091,11
22.393732288714787,0.6702031814661952,11
22.403733955659277,0.6438180248259745,11
22.413735622603767,0.5983799548593951,11
22.42373728954826,0.56297880996535,11
22.43373895649275,0.542593866662647,11
22.44374062343724,0.4840955064289123,11
22.45374229038173,0.4356685788860966,11
22.463743957326223,0.4041058192227394,11
22.473745624270713,0.3299999685085359,11
22.483747291215202,0.3192599923680497,11
22.493748958159696,0.2705017264606563,11
22.503750625104185,0.23235052310068652,11
22.513752292048675,0.1922931218478505,11
22.523753958993165,0.15180630835246064,11
22.53375562593766,0.11688879872356986,11
22.543757292882148,0.11131756560455719,11
22.553758959826638,0.07167555234744956,11
22.563760626771128,0.056866592077394806,11
22.57376229371562,0.04765966661422541,11
22.58376396066011,0.013819439701363855,11
22.5937656276046,0.012386373836852503,11
22.603767294549094,0.01150992257560124,11
22.613768961493584,0.022276464810419627,11
22.623770628438074,0.01628551511084732,11
22.633772295382563,-0.002482901141783616,11
22.643773962327057,-0.0004761712926159583,11
22.653775629271546,-0.0009315197263143106,11
22.663777296216036,-0.013822869774046575,11
22.673778963160526,0.005594678988101075,11
22.68378063010502,0.016760615896418817,11
22.69378229704951,-0.0016857771888286492,11
22.703783963994,0.005172027517446732,11
22.713785630938492,-0.02701281186039902,11
22.723787297882982,-0.01568170903151428,11
22.733788964827472,-0.024567257707509046,11
22.74379063177196,-0.029876129042780846,11
22.753792298716455,-0.06291914583593569,11
22.763793965660945,-0.08505875087016238,11
22.773795632605434,-0.10578572478543473,11
22.783797299549924,-0.14300984614261614,11
22.793798966494418,-0.1769490044050349,11
22.803800633438907,-0.21238704396990116,11
22.813802300383397,-0.24263781792585873,11
22.82380396732789,-0.30373975917676765,11
22.83380563427238,-0.34183936949017457,11
22.84380730121687,-0.366735509313344,11
22.85380896816136,-0.4133143333766472,11
22.863810635105853,-0.4585047348476021,11
22.873812302050343,-0.4875634604463235,11
22.883813968994833,-0.5355383203167264,11
22.893815635939323,-0.5496989801089657,11
22.903817302883816,-0.6166113452709913,11
22.913818969828306,-0.6475412319903915,11
22.923820636772795,-0.7098211798244206,11
22.93382230371729,-0.7135121390123554,11
22.94382397066178,-0.7305366931529708,11
22.95382563760627,-0.7655611943415354,11
22.963827304550758,-0.7816776610889654,11
22.97382897149525,-0.7917438871729453,11
22.98383063843974,-0.7765506870847085,11
22.99383230538423,-0.7841620740420582,11
23.00383397232872,-0.7436124482314321,11
23.013835639273214,-0.7217703387932748,11
23.023837306217704,-0.7071315929635107,11
23.033838973162194,-0.64967860457389,11
23.043840640106687,-0.6170400384184859,11
23.053842307051177,-0.5927502920132974,11
23.063843973995667,-0.528488671617144,11
23.073845640940156,-0.47112099706005367,11
23.08384730788465,-0.41682195776494896,11
23.09384897482914,-0.33168156464571563,11
23.10385064177363,-0.2778656338957571,11
23.11385230871812,-0.19708673023651851,11
23.123853975662612,-0.11413520765124024,11
23.133855642607102,-0.05353220923544792,11
23.143857309551592,0.03381584104943972,11
23.153858976496082,0.10171246185213131,11
23.163860643440575,0.19292515905548197,11
23.173862310385065,0.26453378500287184,11
23.183863977329555,0.3080613686619409,11
23.193865644274048,0.41613159655298604,11
23.203867311218538,0.480647180928196,11
23.213868978163028,0.5638091185754838,11
23.223870645107517,0.6006946571962185,11
23.23387231205201,0.6283165201048262,11
23.2438739789965,0.6737031242997875,11
23.25387564594099,0.7062474594576785,11
23.26387731288548,0.7379905338304679,11
23.273878979829973,0.7593185732497,11
23.283880646774463,0.78710071395209,11
23.293882313718953,0.7719900501039134,11
23.303883980663446,0.7874535971527435,11
23.313885647607936,0.7571691674106442,11
23.323887314552426,0.7673474386640055,11
23.333888981496916,0.7336073451428162,11
23.34389064844141,0.7304019450630992,11
23.3538923153859,0.6985845964062501,11
23.36389398233039,0.6705510694567274,11
23.37389564927488,0.6179022966024743,11
23.38389731621937,0.5900844279182486,11
23.39389898316386,0.5451224954221149,11
23.40390065010835,0.5084209711555824,11
23.413902317052845,0.4633738571691993,11
23.423903983997334,0.39666891633998547,11
23.433905650941824,0.367368494627419,11
23.443907317886314,0.3273264580801683,11
23.453908984830807,0.2788270036855051,11
23.463910651775297,0.24755962893674405,11
23.473912318719787,0.2008204379911081,11
23.483913985664277,0.17662197733745183,11
23.49391565260877,0.14117164621015027,11
23.50391731955326,0.11021086009622627,11
23.51391898649775,0.08166848385234408,11
23.523920653442243,0.05575283040416482,11
23.533922320386733,0.055435510944344984,11
23.543923987331222,0.03470064845673222,11
23.553925654275712,0.015709522555764112,11
23.563927321220206,0.0024525960596053376,11
23.573928988164695,0.010884442128903113,11
23.583930655109185,0.009495539331029302,11
23.593932322053675,0.010735117988588451,11
23.60393398899817,0.004002382326080441,11
23.613935655942658,0.005760976059210254,11
23.623937322887148,0.0022884734809581085,11
23.63393898983164,0.00979402552118482,11
23.64394065677613,0.007393607891248195,11
23.65394232372062,0.0021615010985083912,11
23.66394399066511,-0.0023482883144963444,11
23.673945657609604,-0.020946297834492436,11
23.683947324554094,-0.03504107565161748,11
23.693948991498583,-0.024087739783748004,11
23.703950658443073,-0.0366073456061084,11
23.713952325387567,-0.06152603381445996,11
23.723953992332056,-0.08091834443105927,11
23.733955659276546,-0.10701674755013926,11
23.74395732622104,-0.12106710448775096,11
23.75395899316553,-0.16059478437670793,11
23.76396066011002,-0.17923948251766156,11
23.77396232705451,-0.21434773690006273,11
23.783963993999002,-0.27944549281263453,11
23.793965660943492,-0.30682017814482554,11
23.80396732788798,-0.3536664303896235,11
23.81396899483247,-0.3939411585437848,11
23.823970661776965,-0.4550250856422368,11
23.833972328721455,-0.4765180357167289,11
23.843973995665944,-0.522784176241525,11
23.853975662610434,-0.5590286324043264,11
23.863977329554928,-0.5992245597311464,11
23.873978996499417,-0.6425828698376895,11
23.883980663443907,-0.6822222967981599,11
23.8939823303884,-0.7082112038774525,11
23.90398399733289,-0.7240400717530061,11
23.91398566427738,-0.7420810242709676,11
23.92398733122187,-0.7718251083534067,11
23.933988998166363,-0.7763840730190337,11
23.943990665110853,-0.7828331346383154,11
23.953992332055343,-0.7611678228658524,11
23.963993998999833,-0.7755647821475298,11
23.973995665944326,-0.7498723192690059,11
23.983997332888816,-0.7262426610200863,11
23.993998999833305,-0.6900336251499273,11
24.0040006667778,-0.6508650359098208,11
24.01400233372229,-0.6051505237943259,11
24.02400400066678,-0.5539619917218653,11
24.034005667611268,-0.4823689471787769,11
24.04400733455576,-0.43647197541847593,11
24.05400900150025,-0.3565415162836978,11
24.06401066844474,-0.2996193235976269,11
24.07401233538923,-0.2192942795189291,11
24.084014002333724,-0.13498998422148317,11
24.094015669278214,-0.061237985551046835,11
24.104017336222704,0.008205481743659917,11
24.114019003167197,0.09075948335404446,11
24.124020670111687,0.1708305926106192,11
24.134022337056177,0.22420373106700514,11
24.144024004000666,0.302460508220036,11
24.15402567094516,0.3779472948014645,11
24.16402733788965,0.4628087799512205,11
24.17402900483414,0.5079080671508233,11
24.18403067177863,0.5671428695376949,11
24.194032338723122,0.6216739075761885,11
24.204034005667612,0.6632602873496314,11
24.214035672612102,0.704456551835898,11
24.224037339556595,0.7398854779138802,11
24.234039006501085,0.7310418554911007,11
24.244040673445575,0.770549952885297,11
24.254042340390065,0.781634724989845,11
24.264044007334558,0.7737712725544454,11
24.274045674279048,0.7719905850018906,11
24.284047341223538,0.7749249346596727,11
24.294049008168027,0.7443365194428303,11
24.30405067511252,0.7251470523466782,11
24.31405234205701,0.7153707015268991,11
24.3240540090015,0.6884664302603419,11
24.334055675945994,0.6280306115221868,11
24.344057342890483,0.6081100949429018,11
24.354059009834973,0.5573808114655623,11
24.364060676779463,0.5171884418947036,11
24.374062343723956,0.4747589075389645,11
24.384064010668446,0.41124058679333864,11
24.394065677612936,0.4035715086289374,11
24.404067344557426,0.330146270738913,11
24.41406901150192,0.28132649406823124,11
24.42407067844641,0.2455906920380823,11
24.4340723453909,0.21730937010140097,11
24.444074012335392,0.1715917684245378,11
24.45407567927988,0.13985816120104255,11
24.46407734622437,0.1453268423698913,11
24.47407901316886,0.09236463914320822,11
24.484080680113355,0.07423759458942542,11
24.494082347057844,0.07505338517119295,11
24.504084014002334,0.05805874668783982,11
24.514085680946824,0.03521920528908795,11
24.524087347891317,0.02057360829334959,11
24.534089014835807,0.033017381663311876,11
24.544090681780297,0.0036163807011532637,11
24.554092348724787,0.0011353810823523712,11
24.56409401566928,-0.005584987340773427,11
24.57409568261377,0.0014791474538398384,11
24.58409734955826,0.006976430411145601,11
24.594099016502753,0.01700144326098932,11
24.604100683447243,0.006169225526802433,11
24.614102350391732,-0.012022240529382555,11
24.624104017336222,-0.006946620711510379,11
24.634105684280716,0.0007120301016172951,11
24.644107351225205,-0.02797364458355401,11
24.654109018169695,-0.05705487265025675,11
24.664110685114185,-0.02127861900957642,11
24.67411235205868,-0.060601627851455564,11
24.684114019003168,-0.05783607479057764,11
24.694115685947658,-0.0918043410662609,11
24.70411735289215,-0.13776784393124983,11
24.71411901983664,-0.13873872531060694,11
24.72412068678113,-0.18524640148457908,11
24.73412235372562,-0.21221441204608893,11
24.744124020670114,-0.2530784724009752,11
24.754125687614604,-0.28984143373885723,11
24.764127354559093,-0.33350498939470186,11
24.774129021503583,-0.3726624582112657,11
24.784130688448077,-0.4132428096961925,11
24.794132355392566,-0.4456828154321394,11
24.804134022337056,-0.4978161107549556,11
24.81413568928155,-0.5475693225011257,11
24.82413735622604,-0.596272942338611,11
24.83413902317053,-0.6399305989729476,11
24.84414069011502,-0.6812692253278415,11
24.854142357059512,-0.6887547845000461,11
24.864144024004002,-0.7280524151614527,11
24.87414569094849,-0.7594246709164773,11
24.88414735789298,-0.7485260433636729,11
24.894149024837475,-0.7576549934246588,11
24.904150691781965,-0.7890834316573829,11
24.914152358726454,-0.7766288072936502,11
24.924154025670948,-0.7733521096616315,11
24.934155692615438,-0.7491635499590411,11
24.944157359559927,-0.7144733605146196,11
24.954159026504417,-0.7093531581872435,11
24.96416069344891,-0.663092169957847,11
24.9741623603934,-0.612552957960274,11
24.98416402733789,-0.5688255087344036,11
24.99416569428238,-0.5169906050968033,11
25.004167361226873,-0.4565543158713639,11
25.014169028171363,-0.38460326648070836,11
25.024170695115853,-0.32803072692985097,11
25.034172362060346,-0.24802390082129977,11
25.044174029004836,-0.19332794970976122,11
25.054175695949326,-0.09482183561370312,11
25.064177362893815,-0.014517764939038419,11
25.07417902983831,0.06371015272341099,11
25.0841806967828,0.138196718300645,11
25.09418236372729,0.22033039932250428,11
25.104184030671778,0.2794737843789849,11
25.11418569761627,0.3491431311815338,11
25.12418736456076,0.41790050623761077,11
25.13418903150525,0.4792597668354889,11
25.144190698449744,0.5579603945915599,11
25.154192365394234,0.5931911649899219,11
25.164194032338724,0.6414910072008289,11
25.174195699283214,0.6732897997161517,11
25.184197366227707,0.7225741101963152,11
25.194199033172197,0.7368981400049717,11
25.204200700116687,0.7506350898121076,11
25.214202367061176,0.7638243421146572,11
25.22420403400567,0.7629736889602472,11
25.23420570095016,0.7880989509307701,11
25.24420736789465,0.7821728883137705,11
25.25420903483914,0.7341401368435289,11
25.264210701783632,0.7379071359351866,11
25.274212368728122,0.7142969434619849,11
25.284214035672612,0.6701225884366276,11
25.294215702617105,0.6332983611433142,11
25.304217369561595,0.6130137439846622,11
25.314219036506085,0.5695651311705372,11
25.324220703450575,0.5411289082619155,11
25.334222370395068,0.48606211590566795,11
25.344224037339558,0.45023595349628937,11
25.354225704284048,0.39489366046828767,11
25.364227371228537,0.35828578918140747,11
25.37422903817303,0.3153283307751373,11
25.38423070511752,0.2745651886971232,11
25.39423237206201,0.2274118616586513,11
25.404234039006504,0.20561245309613993,11
25.414235705950993,0.15097234220909023,11
25.424237372895483,0.1328130972818774,11
25.434239039839973,0.10547169370113363,11
25.444240706784466,0.09333830161607205,11
25.454242373728956,0.05360428561412816,11
25.464244040673446,0.04355485175586967,11
25.474245707617936,0.020515714124872984,11
25.48424737456243,0.06061502633766595,11
25.49424904150692,0.027706150235383704,11
25.50425070845141,0.0146616988747253,11
25.514252375395902,0.002138606407081014,11
25.52425404234039,-0.008833030000010608,11
25.53425570928488,-0.017578909018978687,11
25.54425737622937,-0.009914229279511405,11
25.554259043173865,0.00012375743888982138,11
25.564260710118354,0.001537211081236854,11
25.574262377062844,0.025417096439685278,11
25.584264044007334,-0.00014200113218117974,11
25.594265710951827,-0.0056145251446576535,11
25.604267377896317,-0.02709101614303195,11
25.614269044840807,-0.02953704597223608,11
25.6242707117853,-0.02438031830276219,11
25.63427237872979,-0.05883277031783879,11
25.64427404567428,-0.07334548201364352,11
25.65427571261877,-0.09053556822043297,11
25.664277379563263,-0.092324767954003,11
25.674279046507753,-0.13666290347891377,11
25.684280713452242,-0.16787953619961482,11
25.694282380396732,-0.20291113198465405,11
25.704284047341226,-0.24657082835543245,11
25.714285714285715,-0.27284850685425477,11
25.724287381230205,-0.323961732602997,11
25.7342890481747,-0.3540753176276141,11
25.744290715119188,-0.4104722931724226,11
25.754292382063678,-0.45156262388338786,11
25.764294049008168,-0.4990825222582697,11
25.77429571595266,-0.5291069252474299,11
25.78429738289715,-0.57002298581124,11
25.79429904984164,-0.6150884479953193,11
25.80430071678613,-0.6350312557641006,11
25.814302383730624,-0.6919225669053676,11
25.824304050675114,-0.7074598987504301,11
25.834305717619603,-0.7464596270391364,11
25.844307384564097,-0.7772735217489672,11
25.854309051508586,-0.7861322903564705,11
25.864310718453076,-0.78516180511263,11
25.874312385397566,-0.7904295066140934,11
25.88431405234206,-0.7673993467830974,11
25.89431571928655,-0.7557971438269764,11
25.90431738623104,-0.7586992137577402,11
25.91431905317553,-0.7168625195434574,11
25.924320720120022,-0.6811461583308731,11
25.934322387064512,-0.63312416790925,11
25.944324054009,-0.596456588886837,11
25.954325720953495,-0.5459670899979744,11
25.964327387897985,-0.48199880682262,11
25.974329054842475,-0.407926778126266,11
25.984330721786964,-0.3443509802417663,11
25.994332388731458,-0.2799765470238724,11
26.004334055675947,-0.2067728395378755,11
26.014335722620437,-0.1341781999482211,11
26.024337389564927,-0.04692043617296564,11
26.03433905650942,0.028431915133415465,11
26.04434072345391,0.1264529689576307,11
26.0543423903984,0.18666463524289745,11
26.06434405734289,0.25580758380242047,11
26.074345724287383,0.3351244907341867,11
26.084347391231873,0.4113948398627869,11
26.094349058176363,0.4690686685476943,11
26.104350725120856,0.5191583462394583,11
26.114352392065346,0.5720035267588547,11
26.124354059009836,0.6205647115245464,11
26.134355725954325,0.6544208981461114,11
26.14435739289882,0.706131645901602,11
26.15435905984331,0.7359350997926245,11
26.1643607267878,0.7631495833884185,11
26.174362393732288,0.7830853242482914,11
26.18436406067678,0.7901195305687088,11
26.19436572762127,0.7682870588764689,11
26.20436739456576,0.7434981051612259,11
26.214369061510254,0.744997092321443,11
26.224370728454744,0.7552411828076413,11
26.234372395399234,0.7104696498837968,11
26.244374062343724,0.6967411158458965,11
26.254375729288217,0.6525739331981937,11
26.264377396232707,0.6243085006485206,11
26.274379063177197,0.5864812527822962,11
26.284380730121686,0.5524750242454969,11
26.29438239706618,0.5118409351901686,11
26.30438406401067,0.48051229387411987,11
26.31438573095516,0.4422180221740994,11
26.324387397899653,0.3802406416494425,11
26.334389064844142,0.34442314896276527,11
26.344390731788632,0.29776839852785403,11
26.354392398733122,0.24079289373092533,11
26.364394065677615,0.21014939164707305,11
26.374395732622105,0.1910578214066565,11
26.384397399566595,0.13854303609414723,11
26.394399066511085,0.1264356473621505,11
26.404400733455578,0.07226785576701264,11
26.414402400400068,0.06881405103356308,11
26.424404067344557,0.055931211217577013,11
26.43440573428905,0.02774343114652726,11
26.44440740123354,0.02715731350144408,11
26.45440906817803,0.025196443830903935,11
26.46441073512252,0.022310327091246394,11
26.474412402067014,0.00541911758646213,11
26.484414069011503,-0.012775911635365012,11
26.494415735955993,-0.013285931402808017,11
26.504417402900483,0.004334145988046003,11
26.514419069844976,-0.009289717216352397,11
26.524420736789466,0.01914307791854101,11
26.534422403733956,-0.01489782773935152,11
26.54442407067845,-0.0029261432792241976,11
26.55442573762294,-0.009285012915342181,11
26.56442740456743,-0.015877995708665812,11
26.57442907151192,-0.004757546802681872,11
26.584430738456412,-0.02451496649223275,11
26.5944324054009,-0.027064610236825805,11
26.60443407234539,-0.05427024470589787,11
26.61443573928988,-0.05045670982094727,11
26.624437406234374,-0.10460630229884632,11
26.634439073178864,-0.11326582220816886,11
26.644440740123354,-0.17072994552651125,11
26.654442407067847,-0.18099699983227568,11
26.664444074012337,-0.23959906992411553,11
26.674445740956827,-0.24235600458663664,11
26.684447407901317,-0.315822540851548,11
26.69444907484581,-0.3454067202619273,11
26.7044507417903,-0.3887035430834581,11
26.71445240873479,-0.42034890399805536,11
26.72445407567928,-0.47189742194711304,11
26.734455742623773,-0.5199313443851984,11
26.744457409568263,-0.5528767638305193,11
26.754459076512752,-0.6086049250738276,11
26.764460743457242,-0.6190016836161589,11
26.774462410401735,-0.666738615989457,11
26.784464077346225,-0.7017164247486135,11
26.794465744290715,-0.7228424457262144,11
26.80446741123521,-0.751390435951636,11
26.814469078179698,-0.7715784450699338,11
26.824470745124188,-0.7769427774720341,11
26.834472412068678,-0.7854775338295202,11
26.84447407901317,-0.7714586758018358,11
26.85447574595766,-0.7687238121356913,11
26.86447741290215,-0.7560935864061514,11
26.87447907984664,-0.7162397198496159,11
26.884480746791134,-0.6963026717950329,11
26.894482413735624,-0.6485392416463847,11
26.904484080680113,-0.614340825018631,11
26.914485747624607,-0.5646448547947233,11
26.924487414569096,-0.5135419252159944,11
26.934489081513586,-0.43152320792132876,11
26.944490748458076,-0.3768550416494815,11
26.95449241540257,-0.3015885309751025,11
26.96449408234706,-0.23494281704194703,11
26.97449574929155,-0.1673124293698084,11
26.98449741623604,-0.09542837373009581,11
26.994499083180532,-0.008253852328429232,11
27.004500750125022,0.07147576515740946,11
27.01450241706951,0.17249162573062016,11
27.024504084014005,0.2201525826585137,11
27.034505750958495,0.28835587681837876,11
27.044507417902985,0.3670165083850715,11
27.054509084847474,0.4379501893977434,11
27.064510751791968,0.5045241398859047,11
27.074512418736457,0.55278557694607,11
27.084514085680947,0.6058562761974603,11
27.094515752625437,0.6507295663142871,11
27.10451741956993,0.699238830763423,11
27.11451908651442,0.7375473546359181,11
27.12452075345891,0.7463725701891715,11
27.134522420403403,0.7703931178947864,11
27.144524087347893,0.7732351921739973,11
27.154525754292383,0.7809320762652897,11
27.164527421236873,0.7745861839592515,11
27.174529088181366,0.7782359488790186,11
27.184530755125856,0.7442432442827704,11
27.194532422070345,0.7385458657499279,11
27.204534089014835,0.7267237799068591,11
27.21453575595933,0.6841012026451517,11
27.22453742290382,0.6423941136562211,11
27.234539089848308,0.5977420281830347,11
27.2445407567928,0.5668591062417748,11
27.25454242373729,0.5276117803799735,11
27.26454409068178,0.4771135242167005,11
27.27454575762627,0.45095779060347363,11
27.284547424570764,0.40069793003347237,11
27.294549091515254,0.3545440197284959,11
27.304550758459744,0.310239893988215,11
27.314552425404234,0.2821722873803456,11
27.324554092348727,0.22412226847905237,11
27.334555759293217,0.20224531866651152,11
27.344557426237706,0.15362928655102767,11
27.3545590931822,0.1349619229600093,11
27.36456076012669,0.10295962193701753,11
27.37456242707118,0.0910499160490125,11
27.38456409401567,0.06873927323246777,11
27.394565760960162,0.05148464833060103,11
27.404567427904652,0.028576640800629553,11
27.414569094849142,0.03434362152589461,11
27.424570761793632,0.009460812496533369,11
27.434572428738125,-0.002701882846669973,11
27.444574095682615,0.01672334942256132,11
27.454575762627105,0.016654102886866775,11
27.464577429571595,0.007013949407945888,11
27.474579096516088,0.004557080907246165,11
27.484580763460578,-0.005296969648079519,11
27.494582430405067,0.013975865789132314,11
27.50458409734956,0.0013128297543777041,11
27.51458576429405,-0.011263943394063312,11
27.52458743123854,0.0025853755520499205,11
27.53458909818303,-0.04300706808283606,11
27.544590765127523,-0.021882889027890505,11
27.554592432072013,-0.024914883701955645,11
27.564594099016503,-0.05000115445238208,11
27.574595765960993,-0.08660809476634876,11
27.584597432905486,-0.07615619149842144,11
27.594599099849976,-0.10459689593560928,11
27.604600766794466,-0.13132090239923777,11
27.61460243373896,-0.1762294841778755,11
27.62460410068345,-0.2132029142354688,11
27.63460576762794,-0.24942453888320293,11
27.64460743457243,-0.2903331039887819,11
27.65460910151692,-0.33405315842726535,11
27.66461076846141,-0.3691489478576017,11
27.6746124354059,-0.4120298978903289,11
27.68461410235039,-0.4469225666377501,11
27.694615769294884,-0.5062658996500234,11
27.704617436239374,-0.5572230392296048,11
27.714619103183864,-0.598176097175268,11
27.724620770128357,-0.6124248686293213,11
27.734622437072847,-0.6655578003684952,11
27.744624104017337,-0.6859939921643726,11
27.754625770961827,-0.7164322105223744,11
27.76462743790632,-0.7441774007694204,11
27.77462910485081,-0.75661188201507,11
27.7846307717953,-0.7696506912745938,11
27.79463243873979,-0.7756992308249445,11
27.804634105684283,-0.772935315872257,11
27.814635772628773,-0.758360412058132,11
27.824637439573262,-0.7583774461989389,11
27.834639106517756,-0.7316613516035892,11
27.844640773462245,-0.7045924124565879,11
27.854642440406735,-0.664938931464499,11
27.864644107351225,-0.6214057935780785,11
27.87464577429572,-0.5850977638448819,11
27.884647441240208,-0.5023803291444919,11
27.894649108184698,-0.479389281227535,11
27.904650775129188,-0.3824549760188444,11
27.91465244207368,-0.33086497026026407,11
27.92465410901817,-0.28290563357353504,11
27.93465577596266,-0.18926797670726778,11
27.944657442907154,-0.10999698243508754,11
27.954659109851644,-0.04796158125308791,11
27.964660776796133,0.058570909227680795,11
27.974662443740623,0.12365433688188075,11
27.984664110685117,0.16711395603545814,11
27.994665777629606,0.260273303776907,11
28.004667444574096,0.35463183396209186,11
28.014669111518586,0.41027529074549884,11
28.02467077846308,0.47108315276571355,11
28.03467244540757,0.5219574623166818,11
28.04467411235206,0.6003855053772257,11
28.054675779296552,0.6290838381958469,11
28.064677446241042,0.6864656292352985,11
28.07467911318553,0.697551305240144,11
28.08468078013002,0.7328835157073916,11
28.094682447074515,0.7567019240210168,11
28.104684114019005,0.7612031092842673,11
28.114685780963494,0.7615850475466929,11
28.124687447907984,0.7828818089144424,11
28.134689114852478,0.7750668036533677,11
28.144690781796967,0.7562723382945391,11
28.154692448741457,0.7684839614353193,11
28.164694115685947,0.7222942273537927,11
28.17469578263044,0.6788136649739628,11
28.18469744957493,0.6508597314841666,11
28.19469911651942,0.6151728286394295,11
