time,ppg_signal,subject_id
0.0,-0.016812530168527216,19
0.010001666944490749,0.09573018395806032,19
0.020003333888981498,0.21913093028543443,19
0.030005000833472247,0.29405222873365355,19
0.040006667777962995,0.4224339125971847,19
0.050008334722453744,0.5039339732177841,19
0.06001000166694449,0.5781178911072389,19
0.07001166861143523,0.6428890691857196,19
0.08001333555592599,0.7133545847352729,19
0.09001500250041675,0.7410013738951287,19
0.10001666944490749,0.7633983527123358,19
0.11001833638939823,0.7722156314927782,19
0.12002000333388899,0.7884550302677745,19
0.13002167027837974,0.7689221428600843,19
0.14002333722287047,0.7546128920400151,19
0.15002500416736123,0.7089527793918965,19
0.16002667111185198,0.655121925145131,19
0.17002833805634274,0.6212770621426899,19
0.1800300050008335,0.5587676338067148,19
0.19003167194532422,0.49970295872339543,19
0.20003333888981498,0.431829366341996,19
0.21003500583430573,0.37019017653895436,19
0.22003667277879646,0.3307715046633803,19
0.23003833972328722,0.26600606765438917,19
0.24004000666777797,0.214269063447532,19
0.2500416736122687,0.16432895061684846,19
0.2600433405567595,0.11496845517611953,19
0.2700450075012502,0.09681057879715557,19
0.28004667444574094,0.05895758764347601,19
0.2900483413902317,0.03297612365947268,19
0.30005000833472245,0.02892321836238447,19
0.31005167527921323,-0.0028221387984743787,19
0.32005334222370396,0.006459560278057282,19
0.3300550091681947,0.010117466607420038,19
0.3400566761126855,0.008184879637411146,19
0.3500583430571762,0.009000595097208797,19
0.360060010001667,-0.008127544254948955,19
0.3700616769461577,-0.018813759524746267,19
0.38006334389064844,-0.00782055856965043,19
0.3900650108351392,-0.004238006986332579,19
0.40006667777962995,-0.03182001556099307,19
0.4100683447241207,-0.04344723453366366,19
0.42007001166861146,-0.08689107840289141,19
0.4300716786131022,-0.11280918188798847,19
0.4400733455575929,-0.14719863873279623,19
0.4500750125020837,-0.19673923105155128,19
0.46007667944657443,-0.255676294644205,19
0.4700783463910652,-0.3243028639149359,19
0.48008001333555594,-0.37435504894189225,19
0.49008168028004667,-0.4282492281718813,19
0.5000833472245374,-0.490776383632588,19
0.5100850141690282,-0.5368899126753756,19
0.520086681113519,-0.6065681002841888,19
0.5300883480580096,-0.660461809525009,19
0.5400900150025004,-0.696387862505694,19
0.5500916819469912,-0.7259839725120166,19
0.5600933488914819,-0.7667642357839829,19
0.5700950158359727,-0.7944230254239326,19
0.5800966827804634,-0.7953308414355494,19
0.5900983497249542,-0.7370775298060364,19
0.6001000166694449,-0.7501786499442737,19
0.6101016836139357,-0.7081327532983833,19
0.6201033505584265,-0.6411533206194185,19
0.6301050175029171,-0.6119727781400006,19
0.6401066844474079,-0.5327889447576234,19
0.6501083513918987,-0.44076096822232286,19
0.6601100183363894,-0.3374527783130997,19
0.6701116852808802,-0.23149178154120667,19
0.680113352225371,-0.11710994410219544,19
0.6901150191698616,-0.018009185963367518,19
0.7001166861143524,0.07138750419519511,19
0.7101183530588432,0.18879773809748276,19
0.720120020003334,0.29828633446245423,19
0.7301216869478246,0.3962417124568014,19
0.7401233538923154,0.49486665938044067,19
0.7501250208368062,0.5644775405746062,19
0.7601266877812969,0.6306901636602521,19
0.7701283547257877,0.6959449054924304,19
0.7801300216702785,0.7364812923361987,19
0.7901316886147691,0.7494441748228998,19
0.8001333555592599,0.778927967298421,19
0.8101350225037507,0.7880694150124956,19
0.8201366894482414,0.7695859529612558,19
0.8301383563927321,0.7471914579260527,19
0.8401400233372229,0.7128002186990617,19
0.8501416902817136,0.6717170283755358,19
0.8601433572262044,0.6321566437431495,19
0.8701450241706952,0.5684929632669256,19
0.8801466911151858,0.4947724644790791,19
0.8901483580596766,0.4502925895359544,19
0.9001500250041674,0.38358151832269954,19
0.9101516919486582,0.333905334685355,19
0.9201533588931489,0.2791590436663588,19
0.9301550258376396,0.24274107412667517,19
0.9401566927821304,0.17941131204863286,19
0.9501583597266211,0.14208774616176728,19
0.9601600266711119,0.0912541299879597,19
0.9701616936156027,0.05162435382170996,19
0.9801633605600933,0.014268511161017003,19
0.9901650275045841,0.020677488944941775,19
1.0001666944490748,0.015146221195170274,19
1.0101683613935657,0.025473122244581495,19
1.0201700283380564,-0.0026831033118732304,19
1.030171695282547,-0.0006349481286365062,19
1.040173362227038,-0.014596885851716196,19
1.0501750291715286,-0.019105320959347676,19
1.0601766961160193,-0.001970262457365352,19
1.0701783630605102,0.00266631253585981,19
1.0801800300050008,-0.011983038943920582,19
1.0901816969494915,-0.02176720472487479,19
1.1001833638939824,-0.05608854650428001,19
1.110185030838473,-0.07784354214650821,19
1.1201866977829638,-0.09922759310068802,19
1.1301883647274547,-0.15027909443248988,19
1.1401900316719453,-0.20648926373920695,19
1.1501916986164362,-0.23329837407689047,19
1.160193365560927,-0.2966973927485745,19
1.1701950325054176,-0.3635629156729686,19
1.1801966994499085,-0.4307834697805072,19
1.1901983663943991,-0.487238788869594,19
1.2002000333388898,-0.5424186811739147,19
1.2102017002833807,-0.558847044859274,19
1.2202033672278714,-0.6496608742560392,19
1.230205034172362,-0.7031229443543832,19
1.240206701116853,-0.7137481788332021,19
1.2502083680613436,-0.7652161102013019,19
1.2602100350058343,-0.7647004348844438,19
1.2702117019503252,-0.7897914864197009,19
1.2802133688948159,-0.7712090553338993,19
1.2902150358393065,-0.7399132336054685,19
1.3002167027837974,-0.7206285394290493,19
1.310218369728288,-0.6562116788751937,19
1.3202200366727788,-0.6154244958032717,19
1.3302217036172697,-0.5374856496522223,19
1.3402233705617603,-0.4430937752281289,19
1.350225037506251,-0.35478894308827,19
1.360226704450742,-0.25295410836914994,19
1.3702283713952326,-0.1428471031524887,19
1.3802300383397232,-0.03778858073765694,19
1.3902317052842141,0.05524457004112683,19
1.4002333722287048,0.17059386836625634,19
1.4102350391731955,0.266591044184043,19
1.4202367061176864,0.3852884616018123,19
1.430238373062177,0.4690957356541072,19
1.440240040006668,0.5394724086069097,19
1.4502417069511586,0.6177538436826838,19
1.4602433738956493,0.6811962850247811,19
1.4702450408401402,0.719787620132346,19
1.4802467077846309,0.7630956369466506,19
1.4902483747291215,0.7762941665617132,19
1.5002500416736124,0.7862484934262034,19
1.510251708618103,0.7799878586517749,19
1.5202533755625938,0.7430208299772841,19
1.5302550425070847,0.7160141747427425,19
1.5402567094515753,0.6771042815973531,19
1.550258376396066,0.6491851094124176,19
1.560260043340557,0.5960899401560308,19
1.5702617102850476,0.5367986803679101,19
1.5802633772295382,0.44354955348314756,19
1.5902650441740291,0.40102561739809117,19
1.6002667111185198,0.34675905825087133,19
1.6102683780630105,0.27993302645212864,19
1.6202700450075014,0.23377949086815936,19
1.630271711951992,0.19522586138990833,19
1.6402733788964827,0.1243741814119899,19
1.6502750458409736,0.07963510295069084,19
1.6602767127854643,0.06899745208327102,19
1.670278379729955,0.056778378676653946,19
1.6802800466744459,0.016929348562960876,19
1.6902817136189365,0.012104367895426344,19
1.7002833805634272,0.010747070770288704,19
1.710285047507918,0.006212099557267266,19
1.7202867144524088,0.012750297724489237,19
1.7302883813968994,0.006304938906938143,19
1.7402900483413903,0.01512122695815671,19
1.750291715285881,-0.0017253063653671218,19
1.7602933822303717,0.009477987102642608,19
1.7702950491748626,-0.012291119809577585,19
1.7802967161193533,-0.03856401738476599,19
1.7902983830638441,-0.04913177988465489,19
1.8003000500083348,-0.06926588927056647,19
1.8103017169528255,-0.09804459699493294,19
1.8203033838973164,-0.12231178677367993,19
1.830305050841807,-0.1737432543686506,19
1.8403067177862977,-0.23658672820785606,19
1.8503083847307886,-0.2840130456988339,19
1.8603100516752793,-0.3427359968549091,19
1.87031171861977,-0.3943602331881028,19
1.8803133855642609,-0.4703349797377157,19
1.8903150525087515,-0.5199009282701348,19
1.9003167194532422,-0.5638225829975767,19
1.910318386397733,-0.6401974139056936,19
1.9203200533422238,-0.692992105713202,19
1.9303217202867144,-0.7199654474633178,19
1.9403233872312053,-0.7789086653376742,19
1.950325054175696,-0.7590026738901379,19
1.9603267211201867,-0.7781218553737808,19
1.9703283880646776,-0.7849909991969588,19
1.9803300550091683,-0.7572901975024863,19
1.990331721953659,-0.7246304133918464,19
2.0003333888981496,-0.6671032376595049,19
2.0103350558426407,-0.6257061735612622,19
2.0203367227871314,-0.5386527753136143,19
2.030338389731622,-0.4645780139376018,19
2.0403400566761127,-0.35802394107349145,19
2.0503417236206034,-0.27529129246231254,19
2.060343390565094,-0.15431312179205003,19
2.070345057509585,-0.07283867147930165,19
2.080346724454076,0.05080504485779925,19
2.0903483913985665,0.17279375171104333,19
2.100350058343057,0.24359429096996293,19
2.110351725287548,0.36477424773308037,19
2.1203533922320386,0.4376147369048184,19
2.1303550591765297,0.5188549397885837,19
2.1403567261210203,0.5899238494734144,19
2.150358393065511,0.6762073868017179,19
2.1603600600100017,0.7224958346953164,19
2.1703617269544924,0.7501231444306936,19
2.180363393898983,0.7637145792357044,19
2.190365060843474,0.7806576237165566,19
2.200366727787965,0.7702980324392075,19
2.2103683947324555,0.7631006888370965,19
2.220370061676946,0.723494791165982,19
2.230371728621437,0.6801640090291873,19
2.2403733955659275,0.6493224655446632,19
2.2503750625104186,0.5936291896060673,19
2.2603767294549093,0.5547788570519027,19
2.2703783963994,0.46447326769066105,19
2.2803800633438907,0.43160676225442507,19
2.2903817302883813,0.34746672084317476,19
2.3003833972328724,0.3009909418684278,19
2.310385064177363,0.23320311606142555,19
2.320386731121854,0.19043281677930807,19
2.3303883980663445,0.14018071896962328,19
2.340390065010835,0.12165725238721883,19
2.350391731955326,0.0662721231642067,19
2.360393398899817,0.0676073215722169,19
2.3703950658443076,0.02350621307621317,19
2.3803967327887983,-0.001202799721818349,19
2.390398399733289,-0.005159246910302614,19
2.4004000666777796,-0.0029655156184517396,19
2.4104017336222703,0.0007856577277752412,19
2.4204034005667614,0.009677956789622104,19
2.430405067511252,0.003059196217703777,19
2.4404067344557427,-0.001297311867298113,19
2.4504084014002334,0.02063413004793854,19
2.460410068344724,-0.010374741788827996,19
2.4704117352892148,-0.02429193849349454,19
2.480413402233706,-0.02977992362034857,19
2.4904150691781965,-0.09216404557355769,19
2.5004167361226872,-0.09543974661850746,19
2.510418403067178,-0.151551323114447,19
2.5204200700116686,-0.18415342750280522,19
2.5304217369561592,-0.2430376846296015,19
2.5404234039006504,-0.27421454200553136,19
2.550425070845141,-0.3437325538740478,19
2.5604267377896317,-0.3882267039946864,19
2.5704284047341224,-0.44659754872630003,19
2.580430071678613,-0.5135601832917106,19
2.590431738623104,-0.5497402047759226,19
2.600433405567595,-0.6429276400946539,19
2.6104350725120855,-0.6720055764437778,19
2.620436739456576,-0.7180286865149904,19
2.630438406401067,-0.7400824304719673,19
2.6404400733455575,-0.7722845220269329,19
2.6504417402900486,-0.7845149585035243,19
2.6604434072345393,-0.7582392798987563,19
2.67044507417903,-0.7701597272664851,19
2.6804467411235207,-0.7169170065289171,19
2.6904484080680113,-0.6733342877811547,19
2.700450075012502,-0.6283251940510426,19
2.710451741956993,-0.5704277592371634,19
2.720453408901484,-0.48489632301909635,19
2.7304550758459745,-0.40936101482579096,19
2.740456742790465,-0.30026493828181716,19
2.750458409734956,-0.17428364515237388,19
2.7604600766794465,-0.0846194250171737,19
2.7704617436239376,0.043143187950746786,19
2.7804634105684283,0.11915887818378135,19
2.790465077512919,0.24933391963734405,19
2.8004667444574096,0.3243956273616271,19
2.8104684114019003,0.42536331785128256,19
2.820470078346391,0.5211997241836919,19
2.830471745290882,0.5968431379792652,19
2.8404734122353728,0.6627356914310785,19
2.8504750791798634,0.6885869690728554,19
2.860476746124354,0.7316259513574525,19
2.8704784130688448,0.7725495951484789,19
2.880480080013336,0.7759364137328736,19
2.8904817469578266,0.7842245750723731,19
2.9004834139023172,0.7643763125022855,19
2.910485080846808,0.7335103830138938,19
2.9204867477912986,0.6861064320605013,19
2.9304884147357892,0.6674618070042264,19
2.9404900816802804,0.5934315470175419,19
2.950491748624771,0.5641205801297033,19
2.9604934155692617,0.47892700420871276,19
2.9704950825137524,0.42238442863217396,19
2.980496749458243,0.3657815976583239,19
2.9904984164027337,0.2887111176758946,19
3.000500083347225,0.23286479633058987,19
3.0105017502917155,0.193495703585554,19
3.020503417236206,0.1584969502508951,19
3.030505084180697,0.11659306542726922,19
3.0405067511251875,0.09119518491921215,19
3.050508418069678,0.05141512489893872,19
3.0605100850141693,0.037055754926005414,19
3.07051175195866,0.023321273521250768,19
3.0805134189031507,0.024066966513845302,19
3.0905150858476413,-0.0028343329174037217,19
3.100516752792132,0.0021544785107157267,19
3.1105184197366227,0.0031787711896179094,19
3.120520086681114,0.011282346460231844,19
3.1305217536256045,-0.01700661172669538,19
3.140523420570095,0.004736972909131731,19
3.150525087514586,-0.012784901251652936,19
3.1605267544590765,-0.03238725146527972,19
3.170528421403567,-0.039968846140841466,19
3.1805300883480583,-0.055525295955050985,19
3.190531755292549,-0.07961846360907066,19
3.2005334222370396,-0.12790185348855962,19
3.2105350891815303,-0.16462356772136882,19
3.220536756126021,-0.20770683125714845,19
3.230538423070512,-0.2695224393736035,19
3.2405400900150028,-0.320390775584909,19
3.2505417569594934,-0.38334842785591555,19
3.260543423903984,-0.43285167242268247,19
3.270545090848475,-0.516394512230112,19
3.2805467577929655,-0.5610404027318985,19
3.2905484247374566,-0.624673030351295,19
3.3005500916819472,-0.6620835247867894,19
3.310551758626438,-0.7095906370191369,19
3.3205534255709286,-0.741721254328876,19
3.3305550925154193,-0.7817870087052242,19
3.34055675945991,-0.7923288730381222,19
3.350558426404401,-0.7759808841771147,19
3.3605600933488917,-0.7580447051378345,19
3.3705617602933824,-0.7202624523932222,19
3.380563427237873,-0.6758300778654973,19
3.3905650941823637,-0.644300344673116,19
3.4005667611268544,-0.5650095409158665,19
3.4105684280713455,-0.5088714169962686,19
3.420570095015836,-0.4179800431358203,19
3.430571761960327,-0.3105798570293575,19
3.4405734289048175,-0.20262007988122538,19
3.450575095849308,-0.11330375129621724,19
3.460576762793799,-0.01288440337094143,19
3.47057842973829,0.11494679913000892,19
3.4805800966827807,0.1958944909359447,19
3.4905817636272714,0.3119259349573136,19
3.500583430571762,0.4124935774458161,19
3.5105850975162527,0.5156574516629245,19
3.5205867644607434,0.5729235508995479,19
3.5305884314052345,0.6421842916537119,19
3.540590098349725,0.6794555520560852,19
3.550591765294216,0.7384043678006111,19
3.5605934322387065,0.7762562700853346,19
3.570595099183197,0.7727747961218833,19
3.5805967661276883,0.7713634350697746,19
3.590598433072179,0.7532246274287893,19
3.6006001000166696,0.735769148093674,19
3.6106017669611603,0.7244173949831939,19
3.620603433905651,0.6795599858160744,19
3.6306051008501417,0.626490518342051,19
3.6406067677946328,0.5692191342843791,19
3.6506084347391234,0.49495275676174705,19
3.660610101683614,0.44872481227162314,19
3.670611768628105,0.3983365693658831,19
3.6806134355725955,0.32369109562443515,19
3.690615102517086,0.2648682040058703,19
3.7006167694615772,0.2076348446205248,19
3.710618436406068,0.1876475287698939,19
3.7206201033505586,0.12217915209543123,19
3.7306217702950493,0.08660336336505496,19
3.74062343723954,0.048832382111231434,19
3.7506251041840306,0.03251049620506853,19
3.7606267711285217,0.006996068927441042,19
3.7706284380730124,0.007826800193221031,19
3.780630105017503,0.015202097326044007,19
3.7906317719619937,0.007471970640797231,19
3.8006334389064844,-0.011014836465185094,19
3.810635105850975,-0.004221149034758429,19
3.820636772795466,0.0018355226372783477,19
3.830638439739957,-0.014303527031087782,19
3.8406401066844476,-0.009104268089128047,19
3.8506417736289382,-0.02285540194552082,19
3.860643440573429,-0.03986091446442863,19
3.87064510751792,-0.05234148145386156,19
3.8806467744624107,-0.08500923798981602,19
3.8906484414069014,-0.12321451620080999,19
3.900650108351392,-0.15081439505195185,19
3.9106517752958827,-0.199325181847467,19
3.9206534422403734,-0.2485981654976203,19
3.9306551091848645,-0.31196933382776443,19
3.940656776129355,-0.3673536591316067,19
3.950658443073846,-0.42703344845388097,19
3.9606601100183365,-0.4875452678012377,19
3.970661776962827,-0.5612445325159228,19
3.980663443907318,-0.6028897935523255,19
3.990665110851809,-0.6534019051274653,19
4.000666777796299,-0.6971269570507123,19
4.01066844474079,-0.7528663035466,19
4.020670111685281,-0.7523403024570816,19
4.030671778629772,-0.7679520915374938,19
4.040673445574263,-0.7769923817131502,19
4.0506751125187535,-0.7860976123466848,19
4.060676779463244,-0.7400373256185617,19
4.070678446407735,-0.7221424838221937,19
4.0806801133522255,-0.6593021389017053,19
4.090681780296716,-0.5938775302525483,19
4.100683447241207,-0.5075757876779778,19
4.1106851141856975,-0.40935994219868327,19
4.120686781130188,-0.3352337824497536,19
4.130688448074679,-0.22629612598584373,19
4.14069011501917,-0.13704583527476966,19
4.150691781963661,-0.013437264908673658,19
4.160693448908152,0.08060808208770344,19
4.170695115852642,0.20083719616647552,19
4.180696782797133,0.28634291007615137,19
4.190698449741624,0.3925411454265573,19
4.200700116686114,0.48314883255098456,19
4.210701783630605,0.5685535676069007,19
4.220703450575096,0.6143422762350528,19
4.2307051175195864,0.6872175031832467,19
4.240706784464077,0.7295997444012273,19
4.250708451408569,0.7384233404884105,19
4.260710118353059,0.7870848684437328,19
4.27071178529755,0.7801835192378636,19
4.280713452242041,0.7583767789906507,19
4.290715119186531,0.7269894637211244,19
4.300716786131022,0.7052946237993747,19
4.310718453075513,0.6673629109985848,19
4.320720120020003,0.6289682659481107,19
4.330721786964494,0.5613738981315315,19
4.340723453908985,0.5176886158492029,19
4.350725120853475,0.45324438206936274,19
4.360726787797966,0.3974077807602828,19
4.370728454742458,0.3480254936036006,19
4.380730121686948,0.2651410229879616,19
4.390731788631439,0.21391172087060126,19
4.40073345557593,0.17205883121225174,19
4.41073512252042,0.12110972333992134,19
4.420736789464911,0.09178297412625583,19
4.430738456409402,0.06843331373850224,19
4.440740123353892,0.03917814599436896,19
4.450741790298383,0.04135479184841369,19
4.460743457242874,0.010923595315853494,19
4.470745124187364,0.004331540079174242,19
4.480746791131855,0.002602527864559631,19
4.490748458076347,0.0005694349989617397,19
4.500750125020837,-0.021899394997696907,19
4.510751791965328,0.0016250099813652059,19
4.520753458909819,0.002638167721324431,19
4.530755125854309,-0.010964180184212384,19
4.5407567927988,-0.00814096757118557,19
4.550758459743291,-0.011411461311402527,19
4.560760126687781,-0.051935070729622654,19
4.570761793632272,-0.08571412923244293,19
4.580763460576763,-0.10321641218963318,19
4.590765127521253,-0.13737050160114547,19
4.600766794465745,-0.1843173854554261,19
4.6107684614102356,-0.23019239249275075,19
4.620770128354726,-0.29019877860463067,19
4.630771795299217,-0.38106414312210357,19
4.640773462243708,-0.4196477153575924,19
4.650775129188198,-0.47390090490395764,19
4.660776796132689,-0.5447653891101124,19
4.67077846307718,-0.6022051903923976,19
4.68078013002167,-0.6797885744979077,19
4.690781796966161,-0.6867886773876507,19
4.700783463910652,-0.7341278229500721,19
4.710785130855142,-0.7618741169495282,19
4.720786797799634,-0.7895402325641161,19
4.7307884647441245,-0.7945658638964542,19
4.740790131688615,-0.7615562855783343,19
4.750791798633106,-0.7411938339637454,19
4.7607934655775965,-0.7029053753597727,19
4.770795132522087,-0.672709292062322,19
4.780796799466578,-0.5949263177744977,19
4.7907984664110685,-0.521282754839248,19
4.800800133355559,-0.4336473911089263,19
4.81080180030005,-0.3560392680538815,19
4.820803467244541,-0.24364664500516936,19
4.830805134189032,-0.14748608737950414,19
4.840806801133523,-0.0469586893805746,19
4.8508084680780135,0.04335356644169021,19
4.860810135022504,0.1724853381816016,19
4.870811801966995,0.2713078003093426,19
4.8808134689114855,0.382415319891566,19
4.890815135855976,0.47630334483494613,19
4.900816802800467,0.5489728912363226,19
4.9108184697449575,0.633924178679107,19
4.920820136689448,0.682133709259152,19
4.930821803633939,0.7123519186317484,19
4.9408234705784295,0.7404328481377935,19
4.950825137522921,0.7604276112818984,19
4.960826804467412,0.7778372785467265,19
4.970828471411902,0.7846797306415252,19
4.980830138356393,0.75864447058982,19
4.990831805300884,0.7223178220707271,19
5.0008334722453744,0.6770982670663558,19
5.010835139189865,0.6367637162703775,19
5.020836806134356,0.5785575095459611,19
5.0308384730788465,0.5246761268016137,19
5.040840140023337,0.455506168543753,19
5.050841806967828,0.3962740021909384,19
5.0608434739123185,0.3354610443099466,19
5.07084514085681,0.28406657464202134,19
5.080846807801301,0.2501917485128516,19
5.090848474745791,0.18278274718923865,19
5.100850141690282,0.1313420393120725,19
5.110851808634773,0.11534885293010794,19
5.120853475579263,0.06837937792751118,19
5.130855142523754,0.05633376834584499,19
5.140856809468245,0.03435770182650182,19
5.150858476412735,-0.01950063100162224,19
5.160860143357226,-0.0024673768248102534,19
5.170861810301717,0.006969780661894103,19
5.180863477246208,-0.0046810825356917475,19
5.190865144190699,0.011106728733655799,19
5.20086681113519,0.006288139708362544,19
5.21086847807968,-0.005589798822590073,19
5.220870145024171,0.0055611636983957675,19
5.230871811968662,-0.036208982228433856,19
5.240873478913152,-0.02596682463384299,19
5.250875145857643,-0.05545269180869962,19
5.260876812802134,-0.06696025719473882,19
5.270878479746624,-0.10969719576090746,19
5.280880146691115,-0.14762875484427979,19
5.290881813635606,-0.1657545193129807,19
5.300883480580097,-0.22744285662964103,19
5.310885147524588,-0.2902785189677688,19
5.320886814469079,-0.35882407737372807,19
5.330888481413569,-0.40610877353738406,19
5.34089014835806,-0.4629316974259012,19
5.350891815302551,-0.5300944866834344,19
5.360893482247041,-0.5884891708818076,19
5.370895149191532,-0.639176943219504,19
5.380896816136023,-0.691147808945069,19
5.390898483080513,-0.7298179711182198,19
5.400900150025004,-0.752975961743556,19
5.410901816969495,-0.775880948440562,19
5.420903483913986,-0.7739821342264509,19
5.430905150858477,-0.7762445581452728,19
5.440906817802968,-0.7548792655783576,19
5.450908484747458,-0.7405209158855977,19
5.460910151691949,-0.673801683254064,19
5.47091181863644,-0.6136021021159703,19
5.48091348558093,-0.546213948875559,19
5.490915152525421,-0.46486092512187116,19
5.500916819469912,-0.38467710485311385,19
5.510918486414402,-0.26238781160595837,19
5.520920153358893,-0.16715869674231182,19
5.5309218203033845,-0.08258365622609383,19
5.540923487247875,0.07761563503277685,19
5.550925154192366,0.16177546112355584,19
5.5609268211368565,0.2685081769613948,19
5.570928488081347,0.3523575415855506,19
5.580930155025838,0.46548738722007293,19
5.590931821970329,0.5317380013551395,19
5.600933488914819,0.6182586368118064,19
5.61093515585931,0.676196942116278,19
5.620936822803801,0.722673259820839,19
5.630938489748291,0.7518020252724419,19
5.640940156692782,0.7712015706388919,19
5.6509418236372735,0.7885000878377493,19
5.660943490581764,0.7756429194393807,19
5.670945157526255,0.745714918577634,19
5.6809468244707455,0.7298827429789613,19
5.690948491415236,0.68111047516434,19
5.700950158359727,0.6380901058751045,19
5.7109518253042175,0.6038103833133469,19
5.720953492248708,0.5436547488271032,19
5.730955159193199,0.4715012444221898,19
5.7409568261376895,0.4181557021226423,19
5.75095849308218,0.3510882675107958,19
5.760960160026672,0.2766199442872328,19
5.7709618269711624,0.25195355457546037,19
5.780963493915653,0.1822082171769686,19
5.790965160860144,0.14698717454364077,19
5.8009668278046345,0.09762714054473598,19
5.810968494749125,0.06122774331892102,19
5.820970161693616,0.05432297601191254,19
5.8309718286381065,0.019511224163330232,19
5.840973495582597,0.024241341402002403,19
5.850975162527088,-0.008499902848351221,19
5.8609768294715785,-0.005676418672470122,19
5.870978496416069,-0.0006883171431307598,19
5.880980163360561,-0.005510936140013503,19
5.890981830305051,0.015248875759491638,19
5.900983497249542,-0.0002740836293714168,19
5.910985164194033,-0.027094946483886294,19
5.920986831138523,-0.005288713148828945,19
5.930988498083014,-0.014890976542621793,19
5.940990165027505,-0.04816337020713288,19
5.950991831971995,-0.06656455547471042,19
5.960993498916486,-0.10519771593522301,19
5.970995165860977,-0.13693356320221983,19
5.9809968328054675,-0.18390469713740726,19
5.990998499749958,-0.2191254084697679,19
6.00100016669445,-0.2843972677812146,19
6.01100183363894,-0.35175086004002115,19
6.021003500583431,-0.4036605955489022,19
6.031005167527922,-0.44775449227383035,19
6.041006834472412,-0.5122662679878144,19
6.051008501416903,-0.572752617837281,19
6.061010168361394,-0.5952052608119085,19
6.071011835305884,-0.6675193227719404,19
6.081013502250375,-0.7291211612966679,19
6.091015169194866,-0.7440284893582906,19
6.101016836139356,-0.7675144885283418,19
6.111018503083848,-0.788204241956346,19
6.121020170028339,-0.7786046799274432,19
6.131021836972829,-0.7599551163771576,19
6.14102350391732,-0.7348153710246829,19
6.151025170861811,-0.6904202475783363,19
6.161026837806301,-0.6175004242774881,19
6.171028504750792,-0.563486791209102,19
6.181030171695283,-0.4736728695708857,19
6.191031838639773,-0.388083752192907,19
6.201033505584264,-0.30226063061829983,19
6.211035172528755,-0.19303725611849298,19
6.221036839473245,-0.06980856229763205,19
6.231038506417737,0.004510162167223657,19
6.241040173362228,0.13479246262557446,19
6.251041840306718,0.23758033769664372,19
6.261043507251209,0.32309139416820837,19
6.2710451741957,0.4336478707109899,19
6.28104684114019,0.508912280552242,19
6.291048508084681,0.5870930086675701,19
6.301050175029172,0.6600094204394886,19
6.311051841973662,0.7203549379020191,19
6.321053508918153,0.749352487266681,19
6.331055175862644,0.7557287110797409,19
6.341056842807134,0.7817259357635331,19
6.351058509751626,0.7820908665498708,19
6.361060176696117,0.7667794214468581,19
6.371061843640607,0.7248353126790716,19
6.381063510585098,0.6953967232859555,19
6.391065177529589,0.6428360716301457,19
6.401066844474079,0.5857936401712156,19
6.41106851141857,0.5558966861506789,19
6.421070178363061,0.4711211403053324,19
6.431071845307551,0.41551603945596394,19
6.441073512252042,0.3594930246655236,19
6.451075179196533,0.30087461731822757,19
6.461076846141024,0.261498276934239,19
6.471078513085515,0.20596282109912126,19
6.4810801800300055,0.14967923277100015,19
6.491081846974496,0.12007760933863094,19
6.501083513918987,0.0757077433079486,19
6.5110851808634775,0.044448434156497824,19
6.521086847807968,0.0404380326117861,19
6.531088514752459,0.004427352305372653,19
6.54109018169695,0.004145820935364142,19
6.55109184864144,0.010212484058546658,19
6.561093515585931,-0.003984865305690128,19
6.571095182530422,-0.014144396244659279,19
6.581096849474913,-0.01643993346629917,19
6.591098516419404,0.007264835134790778,19
6.6011001833638945,-0.003049703882881454,19
6.611101850308385,-0.01351692213091677,19
6.621103517252876,-0.02191773905858485,19
6.6311051841973665,-0.033837135881093675,19
6.641106851141857,-0.0605802029641322,19
6.651108518086348,-0.1019541778510952,19
6.6611101850308385,-0.11552038148195941,19
6.671111851975329,-0.16438491755629808,19
6.68111351891982,-0.21496078851003964,19
6.6911151858643105,-0.2751873232570419,19
6.701116852808802,-0.32690694206431936,19
6.711118519753293,-0.36545749251403187,19
6.721120186697783,-0.44862741384667404,19
6.731121853642274,-0.49476995451402417,19
6.741123520586765,-0.5794551098671019,19
6.7511251875312555,-0.6164873383524896,19
6.761126854475746,-0.6944857622699476,19
6.771128521420237,-0.7243172857672118,19
6.7811301883647275,-0.7382353507266464,19
6.791131855309218,-0.77867482710756,19
6.801133522253709,-0.7686973336815929,19
6.8111351891982,-0.7635770571821341,19
6.821136856142691,-0.7674574884702797,19
6.831138523087182,-0.7229285999776518,19
6.841140190031672,-0.6733757450044199,19
6.851141856976163,-0.6487360312806183,19
6.861143523920654,-0.5793838811571892,19
6.871145190865144,-0.4960959065354023,19
6.881146857809635,-0.3949194865831151,19
6.891148524754126,-0.3192551708719885,19
6.901150191698616,-0.221531442527333,19
6.911151858643107,-0.11301303662931453,19
6.921153525587598,0.0026932846168194772,19
6.931155192532089,0.11874773664012582,19
6.94115685947658,0.22180301662429946,19
6.951158526421071,0.3207683498049942,19
6.961160193365561,0.403683633089666,19
6.971161860310052,0.500571070883819,19
6.981163527254543,0.5717433096731473,19
6.991165194199033,0.6549021050874426,19
7.001166861143524,0.6997461069888957,19
7.011168528088015,0.7243675717694819,19
7.021170195032505,0.7704183169341104,19
7.031171861976996,0.7673805459759186,19
7.041173528921487,0.7871730422480654,19
7.051175195865978,0.7738497101615528,19
7.061176862810469,0.7348163194850389,19
7.07117852975496,0.7155281977439414,19
7.08118019669945,0.6648604283454461,19
7.091181863643941,0.6198870826761972,19
7.101183530588432,0.5579541622266416,19
7.111185197532922,0.49927697355364886,19
7.121186864477413,0.43160983156502636,19
7.131188531421904,0.406732427892251,19
7.141190198366394,0.3112581008949244,19
7.151191865310885,0.2628630256372853,19
7.161193532255377,0.21008409867338748,19
7.171195199199867,0.15582026287632897,19
7.181196866144358,0.11951564438878438,19
7.191198533088849,0.07745580021942468,19
7.201200200033339,0.05966901667547405,19
7.21120186697783,0.022310266835354524,19
7.221203533922321,0.005482194960828246,19
7.231205200866811,-0.002192946272208682,19
7.241206867811302,0.0077276207607876405,19
7.251208534755793,0.007174445940983811,19
7.261210201700283,0.0008649815413149276,19
7.271211868644774,-0.010816034414662635,19
7.2812135355892655,0.00703473883148654,19
7.291215202533756,-0.01790509387778453,19
7.301216869478247,-0.020999161811420503,19
7.311218536422738,-0.03250536987784229,19
7.321220203367228,-0.042681898906942906,19
7.331221870311719,-0.05370205525211795,19
7.34122353725621,-0.0844124002344912,19
7.3512252042007,-0.11884908464331774,19
7.361226871145191,-0.15427678732024114,19
7.371228538089682,-0.20199248883170956,19
7.381230205034172,-0.25838738079972184,19
7.391231871978664,-0.30171242110901747,19
7.4012335389231545,-0.36799094682087097,19
7.411235205867645,-0.4554206816236393,19
7.421236872812136,-0.487736237930039,19
7.4312385397566265,-0.5574055485982587,19
7.441240206701117,-0.5991689458063187,19
7.451241873645608,-0.6547667691721727,19
7.4612435405900985,-0.7040372899177015,19
7.471245207534589,-0.7250014765823581,19
7.48124687447908,-0.7459968746641326,19
7.4912485414235706,-0.7745905938583699,19
7.501250208368061,-0.7808407402684003,19
7.511251875312553,-0.7666763135055931,19
7.5212535422570435,-0.7198355847095097,19
7.531255209201534,-0.6862250551750617,19
7.541256876146025,-0.6502305481282032,19
7.5512585430905155,-0.602871298333744,19
7.561260210035006,-0.5072422848428148,19
7.571261876979497,-0.4184856711786601,19
7.5812635439239875,-0.33258053577887337,19
7.591265210868478,-0.23013078012839794,19
7.601266877812969,-0.11684041186463817,19
7.6112685447574595,0.00144345548762638,19
7.62127021170195,0.09409070249388973,19
7.631271878646442,0.2033760169599377,19
7.641273545590932,0.31913449358241125,19
7.651275212535423,0.39356331889970064,19
7.661276879479914,0.47310144824228967,19
7.671278546424404,0.5584022459274168,19
7.681280213368895,0.6397519686394353,19
7.691281880313386,0.6939209245459356,19
7.7012835472578764,0.7369889169650696,19
7.711285214202367,0.7834779046584879,19
7.721286881146858,0.7705440442514035,19
7.7312885480913485,0.7747135879542061,19
7.74129021503584,0.7560862011965507,19
7.751291881980331,0.7375934265554289,19
7.761293548924821,0.7037565309580298,19
7.771295215869312,0.6691601008073474,19
7.781296882813803,0.6204727765275407,19
7.791298549758293,0.5617603035307926,19
7.801300216702784,0.4931260106418505,19
7.811301883647275,0.4385548838063211,19
7.821303550591765,0.3825787982763951,19
7.831305217536256,0.3336077298909066,19
7.841306884480747,0.2650054018439414,19
7.851308551425237,0.21195860312681614,19
7.861310218369729,0.1680414413519751,19
7.87131188531422,0.13378098906431718,19
7.88131355225871,0.082091963744076,19
7.891315219203201,0.06554800825036834,19
7.901316886147692,0.02716728994254362,19
7.911318553092182,0.015971675600244536,19
7.921320220036673,0.014840770192978192,19
7.931321886981164,0.006015371316496362,19
7.941323553925654,0.0022223827831939864,19
7.951325220870145,-0.00876287547065715,19
7.961326887814636,0.0128056336133944,19
7.971328554759126,-0.007408219711992955,19
7.981330221703618,0.0048488461015483144,19
7.991331888648109,-0.006880957781886552,19
8.001333555592598,-0.011015208407492462,19
8.01133522253709,-0.04996551487630466,19
8.02133688948158,-0.04495312154244048,19
8.031338556426071,-0.08431211499162426,19
8.041340223370563,-0.1259520328745372,19
8.051341890315053,-0.14726387248315245,19
8.061343557259544,-0.208660859326595,19
8.071345224204034,-0.2387029283631815,19
8.081346891148526,-0.3035255612031812,19
8.091348558093015,-0.36093020252806957,19
8.101350225037507,-0.40840402869014814,19
8.111351891981997,-0.4849019585040673,19
8.121353558926488,-0.5311410692175743,19
8.131355225870978,-0.584619636251948,19
8.14135689281547,-0.6497419037312507,19
8.151358559759961,-0.6989558339597325,19
8.161360226704451,-0.7284781675412791,19
8.171361893648942,-0.7571799175563798,19
8.181363560593432,-0.7741443376604529,19
8.191365227537924,-0.7708372086607657,19
8.201366894482414,-0.7682108427215038,19
8.211368561426905,-0.7501688341939752,19
8.221370228371395,-0.694203770694966,19
8.231371895315887,-0.6706644371941779,19
8.241373562260376,-0.6098425649224619,19
8.251375229204868,-0.5304496192639532,19
8.261376896149358,-0.4407515300226872,19
8.27137856309385,-0.32906723497667617,19
8.28138023003834,-0.24196387792440893,19
8.29138189698283,-0.13271827479895265,19
8.301383563927322,-0.0366589810566224,19
8.311385230871812,0.06937979662043028,19
8.321386897816303,0.17843264738316825,19
8.331388564760793,0.2667065401583998,19
8.341390231705285,0.38611988055308927,19
8.351391898649775,0.4669522898324798,19
8.361393565594266,0.5487602604353429,19
8.371395232538756,0.5969637662898549,19
8.381396899483248,0.6793232238675934,19
8.391398566427739,0.7214254015850806,19
8.401400233372229,0.7377877880972117,19
8.41140190031672,0.7534007721115556,19
8.42140356726121,0.7799591033033587,19
8.431405234205702,0.7751416730349396,19
8.441406901150192,0.7585945855022075,19
8.451408568094683,0.7219063223411463,19
8.461410235039173,0.6831781656487327,19
8.471411901983664,0.6243945029148827,19
8.481413568928154,0.5732945019516082,19
8.491415235872646,0.516317513824184,19
8.501416902817137,0.46547644162110746,19
8.511418569761627,0.3931984093156923,19
8.521420236706119,0.35136738362422293,19
8.531421903650608,0.2768986700414626,19
8.5414235705951,0.23028555373603599,19
8.55142523753959,0.16054612438392332,19
8.561426904484081,0.14094343957516775,19
8.571428571428571,0.1018360117612351,19
8.581430238373063,0.06757897874374744,19
8.591431905317553,0.0527213220478808,19
8.601433572262044,0.04280963919804079,19
8.611435239206534,0.0007688993897868868,19
8.621436906151025,0.01184010069813949,19
8.631438573095517,-0.006386895700724279,19
8.641440240040007,0.0003496282331260037,19
8.651441906984498,0.004959232777500078,19
8.661443573928988,0.0072124834146906226,19
8.67144524087348,-0.007305159196351843,19
8.68144690781797,-0.008753952077280051,19
8.691448574762461,-0.021308284245474263,19
8.70145024170695,-0.03280741186877208,19
8.711451908651442,-0.05709205814031098,19
8.721453575595932,-0.070750761394965,19
8.731455242540424,-0.10024553033014201,19
8.741456909484915,-0.1348265326055964,19
8.751458576429405,-0.19530798228638988,19
8.761460243373897,-0.23131817039262048,19
8.771461910318386,-0.2861325937901431,19
8.781463577262878,-0.3656394512633044,19
8.791465244207368,-0.4204768479528974,19
8.80146691115186,-0.46857089057033247,19
8.811468578096349,-0.5313989032439593,19
8.82147024504084,-0.5843804394700486,19
8.83147191198533,-0.6469010437867585,19
8.841473578929822,-0.6843301436457662,19
8.851475245874314,-0.725005857652684,19
8.861476912818803,-0.7577738761863431,19
8.871478579763295,-0.7574571281230184,19
8.881480246707785,-0.786616782067084,19
8.891481913652276,-0.7867723162473287,19
8.901483580596766,-0.7603615337392062,19
8.911485247541258,-0.7143785661365453,19
8.921486914485747,-0.6668976250095757,19
8.931488581430239,-0.6165609539663165,19
8.941490248374729,-0.545050559557393,19
8.95149191531922,-0.4470919982656762,19
8.96149358226371,-0.36872475564071905,19
8.971495249208202,-0.25183067568468936,19
8.981496916152693,-0.16074962681228197,19
8.991498583097183,-0.06545193178073135,19
9.001500250041675,0.05510723625023978,19
9.011501916986164,0.16915062581043827,19
9.021503583930656,0.292067743933996,19
9.031505250875146,0.360001384455448,19
9.041506917819637,0.46533485897022336,19
9.051508584764127,0.5436521950523697,19
9.061510251708619,0.6102698795649821,19
9.071511918653108,0.6650656803713417,19
9.0815135855976,0.7164838848469579,19
9.091515252542091,0.7517696351813576,19
9.101516919486581,0.786188786323364,19
9.111518586431073,0.7975111166397901,19
9.121520253375563,0.782169823898212,19
9.131521920320054,0.7655363714759643,19
9.141523587264544,0.7143970359462308,19
9.151525254209036,0.6712398324021134,19
9.161526921153525,0.6419899036299226,19
9.171528588098017,0.5975909858100331,19
9.181530255042507,0.5222106293940401,19
9.191531921986998,0.4508073045380218,19
9.20153358893149,0.4260472203021315,19
9.21153525587598,0.3372549667439735,19
9.221536922820471,0.28726951310486726,19
9.231538589764961,0.2225437930014696,19
9.241540256709452,0.18219665139494445,19
9.251541923653942,0.13709048960585876,19
9.261543590598434,0.12863167975606588,19
9.271545257542924,0.0727846597692206,19
9.281546924487415,0.04084404198016131,19
9.291548591431905,0.022396173271430883,19
9.301550258376396,0.02650357774135334,19
9.311551925320888,0.010073517760180443,19
9.321553592265378,-0.009934684200573057,19
9.33155525920987,0.004666074660911794,19
9.34155692615436,-0.012569808394849443,19
9.35155859309885,-0.0088647390716438,19
9.36156026004334,-0.010534438330669726,19
9.371561926987832,0.0052858033504860884,19
9.381563593932322,-0.020399824927432912,19
9.391565260876813,-0.010533531910632709,19
9.401566927821303,-0.043382167337965294,19
9.411568594765795,-0.05559984177345435,19
9.421570261710285,-0.0844559894066006,19
9.431571928654776,-0.12871466510514357,19
9.441573595599268,-0.17153307904299586,19
9.451575262543757,-0.2398507787292107,19
9.461576929488249,-0.2737711677246514,19
9.471578596432739,-0.35130140261412574,19
9.48158026337723,-0.4078148724919411,19
9.49158193032172,-0.4753122246879931,19
9.501583597266212,-0.5050588386263868,19
9.511585264210701,-0.5712303952763439,19
9.521586931155193,-0.6363439907750431,19
9.531588598099683,-0.675480621002731,19
9.541590265044174,-0.7134871864168462,19
9.551591931988666,-0.758827673057006,19
9.561593598933156,-0.7771158109093838,19
9.571595265877647,-0.7959362346659739,19
9.581596932822137,-0.7643280443236447,19
9.591598599766629,-0.7662498742814937,19
9.601600266711118,-0.7160438877153162,19
9.61160193365561,-0.6679560736176834,19
9.6216036006001,-0.6243356718016555,19
9.631605267544591,-0.5481660258056184,19
9.641606934489081,-0.47825744713436485,19
9.651608601433573,-0.38509193355785776,19
9.661610268378064,-0.28702620276770646,19
9.671611935322554,-0.17187916835534314,19
9.681613602267046,-0.0957592053621309,19
9.691615269211535,0.024362149319643683,19
9.701616936156027,0.14578573482517337,19
9.711618603100517,0.23056595662751814,19
9.721620270045008,0.35080720455767295,19
9.731621936989498,0.40940367819034285,19
9.74162360393399,0.5422786225042706,19
9.75162527087848,0.6123806551945571,19
9.761626937822971,0.6658394011933628,19
9.77162860476746,0.7199643683188743,19
9.781630271711952,0.7531121632154905,19
9.791631938656444,0.7705617247947197,19
9.801633605600934,0.7787454687159497,19
9.811635272545425,0.756649922022981,19
9.821636939489915,0.763780633345188,19
9.831638606434407,0.7242373572294288,19
9.841640273378896,0.6877822274429508,19
9.851641940323388,0.6504442859986204,19
9.861643607267878,0.5926957400753758,19
9.87164527421237,0.5599182186807571,19
9.881646941156859,0.48718151767969087,19
9.89164860810135,0.4300447508770647,19
9.901650275045842,0.3632689730603357,19
9.911651941990332,0.29708555538649195,19
9.921653608934824,0.22635107499983484,19
9.931655275879313,0.20832610384623707,19
9.941656942823805,0.15111182142237145,19
9.951658609768295,0.09335691986033315,19
9.961660276712786,0.07103231307772917,19
9.971661943657276,0.05748140278371013,19
9.981663610601768,0.022381836356540757,19
9.991665277546257,0.02677108430061252,19
10.001666944490749,0.024624596085854517,19
10.01166861143524,0.01374649869640046,19
10.02167027837973,-0.010253567916872437,19
10.031671945324222,0.004396524681257784,19
10.041673612268712,-0.00234014535434965,19
10.051675279213203,0.012891584462831422,19
10.061676946157693,-0.013840963712647631,19
10.071678613102184,-0.00017659715208630938,19
10.081680280046674,-0.023131693528518002,19
10.091681946991166,-0.052139570954193096,19
10.101683613935656,-0.05730469060059752,19
10.111685280880147,-0.0851308924466216,19
10.121686947824637,-0.1391710366866817,19
10.131688614769129,-0.16838984050697642,19
10.14169028171362,-0.20247568730680865,19
10.15169194865811,-0.2559398611193635,19
10.161693615602601,-0.33059799750080576,19
10.171695282547091,-0.3803867948791062,19
10.181696949491583,-0.45113382942870833,19
10.191698616436073,-0.5009245917495847,19
10.201700283380564,-0.5727801470506338,19
10.211701950325054,-0.6146939502360284,19
10.221703617269545,-0.6695481734979971,19
10.231705284214035,-0.7052250580142846,19
10.241706951158527,-0.7332308815144158,19
10.251708618103018,-0.7792795731572663,19
10.261710285047508,-0.7794961166034693,19
10.271711951992,-0.7939456399618599,19
10.28171361893649,-0.7768236403347443,19
10.291715285880981,-0.7093403364527973,19
10.30171695282547,-0.6879293673865831,19
10.311718619769962,-0.6264768675698397,19
10.321720286714452,-0.5952900741862424,19
10.331721953658944,-0.4955938269599229,19
10.341723620603434,-0.4166924080286345,19
10.351725287547925,-0.296960013719869,19
10.361726954492417,-0.19481840774898027,19
10.371728621436906,-0.11545600484246833,19
10.381730288381398,0.009119987953783541,19
10.391731955325888,0.10159859912911967,19
10.40173362227038,0.2246670306329886,19
10.41173528921487,0.3129934769781803,19
10.42173695615936,0.43444129334605924,19
10.43173862310385,0.49659062671877174,19
10.441740290048342,0.5906062224450982,19
10.451741956992832,0.6504920900593154,19
10.461743623937323,0.6909220903299768,19
10.471745290881813,0.757392305905939,19
10.481746957826305,0.7662965816735972,19
10.491748624770796,0.7934777890028403,19
10.501750291715286,0.7871341192640194,19
10.511751958659778,0.7562420426841536,19
10.521753625604267,0.7429378819780198,19
10.531755292548759,0.705979559890026,19
10.541756959493249,0.6736979742731571,19
10.55175862643774,0.6106260494400978,19
10.56176029338223,0.5512106085712464,19
10.571761960326722,0.49783239372865223,19
10.581763627271211,0.4183854299367706,19
10.591765294215703,0.36335604454360515,19
10.601766961160195,0.3009229136816171,19
10.611768628104684,0.27298178741865087,19
10.621770295049176,0.18496695848256423,19
10.631771961993666,0.15462878243556996,19
10.641773628938157,0.1332997910986421,19
10.651775295882647,0.0977282191433931,19
10.661776962827139,0.05074803421639945,19
10.671778629771628,0.048813264092441286,19
10.68178029671612,0.024059921844696526,19
10.69178196366061,-0.0019299818830048904,19
10.701783630605101,0.012570050394763622,19
10.711785297549593,-0.001963147802146272,19
10.721786964494083,-0.003083853178639507,19
10.731788631438574,0.009421538432974271,19
10.741790298383064,-0.0009570041891661784,19
10.751791965327556,-0.00276434051598637,19
10.761793632272045,-0.0010626995165133359,19
10.771795299216537,-0.024839842360322995,19
10.781796966161027,-0.02976361529703821,19
10.791798633105518,-0.048695508633717244,19
10.801800300050008,-0.09785766494269112,19
10.8118019669945,-0.12725061697701254,19
10.82180363393899,-0.14921191702316272,19
10.831805300883481,-0.21767660320729315,19
10.841806967827972,-0.2599234789464533,19
10.851808634772462,-0.2971745835519214,19
10.861810301716954,-0.3610351150619281,19
10.871811968661444,-0.42591577972741507,19
10.881813635605935,-0.4953044522949488,19
10.891815302550425,-0.5369403254459671,19
10.901816969494917,-0.6053948826246425,19
10.911818636439406,-0.6491991719226855,19
10.921820303383898,-0.709860606568978,19
10.931821970328388,-0.7263766959575841,19
10.94182363727288,-0.760620542822897,19
10.95182530421737,-0.7692158554241274,19
10.96182697116186,-0.7805361522889739,19
10.971828638106352,-0.7626570535776279,19
10.981830305050842,-0.7313791125969408,19
10.991831971995333,-0.7041766153550002,19
11.001833638939823,-0.6434594448259812,19
11.011835305884315,-0.565263548147118,19
11.021836972828805,-0.49571245237374395,19
11.031838639773296,-0.42878056859780705,19
11.041840306717786,-0.3186439519913318,19
11.051841973662277,-0.2132634169988151,19
11.061843640606769,-0.11308281512149768,19
11.071845307551259,0.0002691876048218564,19
11.08184697449575,0.09737058100371537,19
11.09184864144024,0.18642607390028906,19
11.101850308384732,0.30086395678293704,19
11.111851975329222,0.4020377912467334,19
11.121853642273713,0.48351917075754675,19
11.131855309218203,0.5814683227394752,19
11.141856976162694,0.6400131278579696,19
11.151858643107184,0.6816419625683142,19
11.161860310051676,0.7169549841648237,19
11.171861976996166,0.7711983863151842,19
11.181863643940657,0.7727805660755019,19
11.191865310885149,0.7903252478214624,19
11.201866977829638,0.7535359407284001,19
11.21186864477413,0.7387277560783921,19
11.22187031171862,0.7286658257465767,19
11.231871978663111,0.6792919857597179,19
11.241873645607601,0.604898278957185,19
11.251875312552093,0.5700578002818754,19
11.261876979496583,0.5005643887333144,19
11.271878646441074,0.44115739384737906,19
11.281880313385564,0.372361336004935,19
11.291881980330055,0.3189080770708595,19
11.301883647274547,0.28784142222102643,19
11.311885314219037,0.19934683015812876,19
11.321886981163528,0.1670997670482396,19
11.331888648108018,0.12569331613852863,19
11.34189031505251,0.08133597997238962,19
11.351891981997,0.06219010995590626,19
11.361893648941491,0.04526651358638727,19
11.37189531588598,0.03312370424512676,19
11.381896982830472,0.003918098613493774,19
11.391898649774962,0.0030872866876293682,19
11.401900316719454,0.004402995635259546,19
11.411901983663945,0.006618812924617321,19
11.421903650608435,-0.006137505769590448,19
11.431905317552927,-0.009205092834142043,19
11.441906984497416,-0.0021244349079454616,19
11.451908651441908,-0.0013107812709291546,19
11.461910318386398,-0.005230128775956321,19
11.47191198533089,-0.033442668138066546,19
11.481913652275379,-0.05081101768171398,19
11.49191531921987,-0.09713120019327376,19
11.50191698616436,-0.11337000536258723,19
11.511918653108852,-0.15589560776513797,19
11.521920320053344,-0.18689002533034002,19
11.531921986997833,-0.21956571759159704,19
11.541923653942325,-0.30166092775188563,19
11.551925320886815,-0.3622859944027187,19
11.561926987831306,-0.42782906718779856,19
11.571928654775796,-0.4961289481809146,19
11.581930321720288,-0.5393281493266217,19
11.591931988664777,-0.6025560272070072,19
11.601933655609269,-0.6689767680051895,19
11.611935322553759,-0.7064880258786285,19
11.62193698949825,-0.7422807737876348,19
11.63193865644274,-0.7730946485668421,19
11.641940323387232,-0.7801430531306583,19
11.651941990331723,-0.7932903312507219,19
11.661943657276213,-0.7837334857345549,19
11.671945324220705,-0.7618312318155556,19
11.681946991165194,-0.7240694396439069,19
11.691948658109686,-0.6440702997409331,19
11.701950325054176,-0.6012201144276942,19
11.711951991998667,-0.5389615807249559,19
11.721953658943157,-0.41515431132745967,19
11.731955325887649,-0.3475679886731846,19
11.741956992832138,-0.23985903467333763,19
11.75195865977663,-0.14638505906548852,19
11.761960326721121,-0.04566016948355565,19
11.771961993665611,0.07140356773799243,19
11.781963660610103,0.16706095968196263,19
11.791965327554593,0.283469331925941,19
11.801966994499084,0.3786755238092829,19
11.811968661443574,0.47164101633433364,19
11.821970328388065,0.5478811769302536,19
11.831971995332555,0.6001098951312741,19
11.841973662277047,0.6863712556134532,19
11.851975329221537,0.7332927093531738,19
11.861976996166028,0.7590032906187729,19
11.87197866311052,0.758048163298086,19
11.88198033005501,0.7680538889239743,19
11.891981996999501,0.7841863547440666,19
11.90198366394399,0.7635238009449036,19
11.911985330888482,0.7166653098903636,19
11.921986997832972,0.6603371757292877,19
11.931988664777464,0.6406464775506981,19
11.941990331721954,0.5784421221959493,19
11.951991998666445,0.5254385896732349,19
11.961993665610935,0.4545897552935898,19
11.971995332555426,0.3829668516147932,19
11.981996999499916,0.3416506648772202,19
11.991998666444408,0.2583008516356269,19
12.0020003333889,0.22033623558153514,19
12.01200200033339,0.18932005341795408,19
12.02200366727788,0.1204400274722453,19
12.03200533422237,0.1012322937373674,19
12.042007001166862,0.058226017025220664,19
12.052008668111352,0.04201142538502794,19
12.062010335055843,0.0274074272133844,19
12.072012002000333,0.0015276120210989588,19
12.082013668944825,-0.004229801255349547,19
12.092015335889315,-0.009346913396491234,19
12.102017002833806,0.005557713940471518,19
12.112018669778298,1.1269904722084498e-05,19
12.122020336722787,0.012389815394511061,19
12.132022003667279,-0.015524734757182869,19
12.142023670611769,-0.012993235560000248,19
12.15202533755626,-0.015833737117613784,19
12.16202700450075,-0.023391022930942404,19
12.172028671445242,-0.043738464548352486,19
12.182030338389731,-0.06494757118122993,19
12.192032005334223,-0.10062533200804497,19
12.202033672278713,-0.14456104780164425,19
12.212035339223204,-0.20253017068353718,19
12.222037006167696,-0.22106819606384379,19
12.232038673112186,-0.29181333909803886,19
12.242040340056677,-0.34178608871924854,19
12.252042007001167,-0.40502188231783376,19
12.262043673945659,-0.4749532899682161,19
12.272045340890148,-0.5360349210814968,19
12.28204700783464,-0.5932632354428461,19
12.29204867477913,-0.646521110768853,19
12.302050341723621,-0.7046699634650148,19
12.312052008668111,-0.7467033344876628,19
12.322053675612603,-0.7472694348378233,19
12.332055342557092,-0.7748323670827708,19
12.342057009501584,-0.7759753061894926,19
12.352058676446076,-0.7680425917357848,19
12.362060343390565,-0.7269334912536692,19
12.372062010335057,-0.7324727800772917,19
12.382063677279547,-0.669874440327106,19
12.392065344224038,-0.6091375811879276,19
12.402067011168528,-0.5316145785123453,19
12.41206867811302,-0.46316242775752214,19
12.42207034505751,-0.34391163116625445,19
12.432072012002001,-0.28568585375366984,19
12.44207367894649,-0.16689014527921528,19
12.452075345890982,-0.06476815734206537,19
12.462077012835474,0.05706536960155749,19
12.472078679779964,0.17156911141137784,19
12.482080346724455,0.2691153421407077,19
12.492082013668945,0.3874446958459564,19
12.502083680613437,0.4544108248450318,19
12.512085347557926,0.5385566817553625,19
12.522087014502418,0.6312752041461953,19
12.532088681446908,0.670252682290014,19
12.5420903483914,0.7072173956353507,19
12.552092015335889,0.746853945415631,19
12.56209368228038,0.788753273351617,19
12.572095349224872,0.7679100373356639,19
12.582097016169362,0.7724470028310217,19
12.592098683113853,0.7618697310577557,19
12.602100350058343,0.7195385753047037,19
12.612102017002835,0.6790789356268261,19
12.622103683947325,0.6458840643414665,19
12.632105350891816,0.617136491002447,19
12.642107017836306,0.5316592606682434,19
12.652108684780798,0.47574391100753743,19
12.662110351725287,0.41506253527452247,19
12.672112018669779,0.35311522248126775,19
12.682113685614269,0.2953429285460627,19
12.69211535255876,0.22970819819062008,19
12.702117019503252,0.18038395109380057,19
12.712118686447742,0.13828519898758607,19
12.722120353392233,0.11339049693442677,19
12.732122020336723,0.06756287987893488,19
12.742123687281214,0.03349895763214222,19
12.752125354225704,0.03859259693715486,19
12.762127021170196,0.01483152666816242,19
12.772128688114686,0.019524335481455643,19
12.782130355059177,0.012037631569958726,19
12.792132022003667,-0.003491155490480161,19
12.802133688948159,-0.006653477633146637,19
12.81213535589265,-0.014787931861657876,19
12.82213702283714,-0.004590337490827918,19
12.832138689781631,-0.012916697345520992,19
12.842140356726121,-0.022233923546221675,19
12.852142023670613,-0.0317331828740706,19
12.862143690615103,-0.038757484775321094,19
12.872145357559594,-0.08567840185030447,19
12.882147024504084,-0.0926726569928158,19
12.892148691448575,-0.13197589679075075,19
12.902150358393065,-0.189103369109913,19
12.912152025337557,-0.23666059350253785,19
12.922153692282048,-0.3036680727183722,19
12.932155359226538,-0.32174776848896186,19
12.94215702617103,-0.4010839707033196,19
12.95215869311552,-0.4700766889691221,19
12.962160360060011,-0.5297664260217017,19
12.9721620270045,-0.5836418294688376,19
12.982163693948992,-0.623166268409769,19
12.992165360893482,-0.6865611696855202,19
13.002167027837974,-0.7229526019995218,19
13.012168694782464,-0.7676823369501433,19
13.022170361726955,-0.7535945922767336,19
13.032172028671445,-0.7749609007682232,19
13.042173695615936,-0.7629239968865345,19
13.052175362560428,-0.7601582997747018,19
13.062177029504918,-0.7403155496409285,19
13.07217869644941,-0.6875136836435081,19
13.0821803633939,-0.6112683833610014,19
13.09218203033839,-0.5479476017742693,19
13.10218369728288,-0.46859228858497215,19
13.112185364227372,-0.3827560934061708,19
13.122187031171862,-0.3035737426972003,19
13.132188698116353,-0.19288858564784295,19
13.142190365060843,-0.08085225663851085,19
13.152192032005335,0.030386858799576706,19
13.162193698949826,0.15045717477086235,19
13.172195365894316,0.255379802217502,19
13.182197032838808,0.34376435185260334,19
13.192198699783297,0.4385662282736835,19
13.202200366727789,0.545437149245836,19
13.212202033672279,0.5856203159064347,19
13.22220370061677,0.6719239499360444,19
13.23220536756126,0.7202821522649827,19
13.242207034505752,0.7535333551392102,19
13.252208701450241,0.7709444689440638,19
13.262210368394733,0.7828462172911914,19
13.272212035339225,0.765578725770665,19
13.282213702283714,0.7529598937898357,19
13.292215369228206,0.7309371532334701,19
13.302217036172696,0.7023887815321447,19
13.312218703117187,0.6597137175066399,19
13.322220370061677,0.6049773979037288,19
13.332222037006169,0.5387968522975396,19
13.342223703950658,0.4695761346726909,19
13.35222537089515,0.416708292301526,19
13.36222703783964,0.3521251762761103,19
13.372228704784131,0.2907898345590583,19
13.382230371728621,0.24894385834013275,19
13.392232038673113,0.2134178388855099,19
13.402233705617604,0.14938854008570798,19
13.412235372562094,0.11002684474871563,19
13.422237039506586,0.08652112350588247,19
13.432238706451075,0.06347291945123765,19
13.442240373395567,0.0347725922325844,19
13.452242040340057,0.030469302502299178,19
13.462243707284548,0.03838540003439768,19
13.472245374229038,4.942332733897563e-05,19
13.48224704117353,-0.0038663234486228373,19
13.49224870811802,0.020312395304777242,19
13.502250375062511,-0.006618337901367767,19
13.512252042007002,-0.009412977678335674,19
13.522253708951492,-0.005297995409390304,19
13.532255375895984,0.008953951095609841,19
13.542257042840474,-0.03039751257931226,19
13.552258709784965,-0.0543116579732724,19
13.562260376729455,-0.05552268695269408,19
13.572262043673947,-0.08739188180884241,19
13.582263710618436,-0.1295953135267804,19
13.592265377562928,-0.17757224147949852,19
13.602267044507418,-0.23142383480156817,19
13.61226871145191,-0.2813150010980561,19
13.6222703783964,-0.3075267440659216,19
13.63227204534089,-0.39059018644162,19
13.642273712285382,-0.44101204112686415,19
13.652275379229872,-0.5159649682275635,19
13.662277046174363,-0.571515443688144,19
13.672278713118853,-0.6253351231922746,19
13.682280380063345,-0.6764550742543123,19
13.692282047007835,-0.7126637648245192,19
13.702283713952326,-0.7382824021340524,19
13.712285380896816,-0.7784871670261352,19
13.722287047841307,-0.7732114773069008,19
13.732288714785797,-0.7807513345159864,19
13.742290381730289,-0.7762962832691552,19
13.75229204867478,-0.7320670696111534,19
13.76229371561927,-0.6864037809839588,19
13.772295382563762,-0.6198184175078241,19
13.782297049508252,-0.5794694104306923,19
13.792298716452743,-0.488120594585943,19
13.802300383397233,-0.39346520050258976,19
13.812302050341724,-0.31213764955361933,19
13.822303717286214,-0.20627351536555982,19
13.832305384230706,-0.08709479516668689,19
13.842307051175196,0.008508376567655851,19
13.852308718119687,0.12344730787992207,19
13.862310385064179,0.217546259412279,19
13.872312052008668,0.3173775526453224,19
13.88231371895316,0.41545344170592063,19
13.89231538589765,0.5180421987663375,19
13.902317052842141,0.5771844523090227,19
13.912318719786631,0.6588573478778879,19
13.922320386731123,0.693194898238971,19
13.932322053675612,0.7415837178623236,19
13.942323720620104,0.7718992055501104,19
13.952325387564594,0.7623506624108246,19
13.962327054509085,0.7838565537520487,19
13.972328721453577,0.7634784550974838,19
13.982330388398067,0.7393213160338817,19
13.992332055342558,0.7062159900942175,19
14.002333722287048,0.6551650192412726,19
14.01233538923154,0.609980428725144,19
14.02233705617603,0.5621697446915473,19
14.032338723120521,0.5035923240814579,19
14.04234039006501,0.4371250103472682,19
14.052342057009502,0.39004098986359415,19
14.062343723953992,0.32285092326841563,19
14.072345390898484,0.25399604025364875,19
14.082347057842973,0.18350161849756466,19
14.092348724787465,0.16209655270180007,19
14.102350391731957,0.10862370273483364,19
14.112352058676446,0.07923663524310512,19
14.122353725620938,0.04669499558584142,19
14.132355392565428,0.023934811805497426,19
14.14235705950992,0.01771451426067175,19
14.152358726454409,0.009044218819000409,19
14.1623603933989,-0.007909799936984192,19
14.17236206034339,0.0031044391691742333,19
14.182363727287882,0.010808514776045691,19
14.192365394232372,-0.021553091898941713,19
14.202367061176863,0.015448825454143483,19
14.212368728121355,-0.0045444128444302135,19
14.222370395065845,-0.029188765696346645,19
14.232372062010336,-0.031783871995803036,19
14.242373728954826,-0.028914816023345002,19
14.252375395899318,-0.05308997336304549,19
14.262377062843807,-0.06729050709845322,19
14.272378729788299,-0.12067523265063375,19
14.282380396732789,-0.16197318554662474,19
14.29238206367728,-0.19553130512941416,19
14.30238373062177,-0.2476405055310173,19
14.312385397566262,-0.3197132888273031,19
14.322387064510753,-0.38372137515548266,19
14.332388731455243,-0.4445766855548078,19
14.342390398399735,-0.4838402267205444,19
14.352392065344224,-0.5497439049962985,19
14.362393732288716,-0.6138170111607846,19
14.372395399233206,-0.6562898958925821,19
14.382397066177697,-0.7038045447829083,19
14.392398733122187,-0.7501444204906429,19
14.402400400066679,-0.7498986465867001,19
14.412402067011168,-0.7885153144401469,19
14.42240373395566,-0.7668912422422889,19
14.432405400900151,-0.7711585920625235,19
14.442407067844641,-0.7472838145947015,19
14.452408734789133,-0.6905541756061983,19
14.462410401733623,-0.6470507004004915,19
14.472412068678114,-0.5593178978590944,19
14.482413735622604,-0.5185154916864878,19
14.492415402567095,-0.4057042636898078,19
14.502417069511585,-0.32463504138229515,19
14.512418736456077,-0.23787268938409298,19
14.522420403400567,-0.10477215319659826,19
14.532422070345058,0.00044965701941258006,19
14.542423737289548,0.10968470483160196,19
14.55242540423404,0.19441833269953837,19
14.562427071178531,0.3107579981685492,19
14.57242873812302,0.40720241443256117,19
14.582430405067512,0.4869964039085874,19
14.592432072012002,0.5871446828544952,19
14.602433738956494,0.6319030330147477,19
14.612435405900984,0.6788377688243724,19
14.622437072845475,0.7392246440659714,19
14.632438739789965,0.7747653807308253,19
14.642440406734456,0.7672029436599307,19
14.652442073678946,0.7839307909182687,19
14.662443740623438,0.7544364329062422,19
14.67244540756793,0.7426955254661107,19
14.68244707451242,0.6951981071526003,19
14.69244874145691,0.668721047192873,19
14.7024504084014,0.6121952890463604,19
14.712452075345892,0.5602051886043737,19
14.722453742290382,0.4956154668984319,19
14.732455409234873,0.4502963879568583,19
14.742457076179363,0.3807316913560892,19
14.752458743123855,0.3315981557947665,19
14.762460410068345,0.2700773437598917,19
14.772462077012836,0.21495441778892682,19
14.782463743957328,0.16189246110072653,19
14.792465410901817,0.12137411266858444,19
14.802467077846309,0.0889292841770275,19
14.812468744790799,0.04095303226926226,19
14.82247041173529,0.05754848347665914,19
14.83247207867978,0.018911617493610502,19
14.842473745624272,0.018492962673017747,19
14.852475412568761,0.023968816851525465,19
14.862477079513253,-0.0069363513171558245,19
14.872478746457743,0.02195798972622953,19
14.882480413402234,0.006500952970574893,19
14.892482080346724,-0.004873537598643174,19
14.902483747291216,0.00624684466669282,19
14.912485414235707,-0.03266407220018214,19
14.922487081180197,-0.011918685353352583,19
14.932488748124689,-0.050112206150582886,19
14.942490415069178,-0.06063407974536984,19
14.95249208201367,-0.08611054387726261,19
14.96249374895816,-0.11967474111063635,19
14.972495415902651,-0.15718868928418903,19
14.982497082847141,-0.19519494549574565,19
14.992498749791633,-0.27314652417106067,19
15.002500416736122,-0.3094486004981224,19
15.012502083680614,-0.346469618996065,19
15.022503750625106,-0.4192994507855467,19
15.032505417569595,-0.4996253321718992,19
15.042507084514087,-0.5386320155374652,19
15.052508751458577,-0.6204591471798473,19
15.062510418403068,-0.6378850472785359,19
15.072512085347558,-0.69174705568584,19
15.08251375229205,-0.73185866188647,19
15.09251541923654,-0.762081342639943,19
15.102517086181031,-0.7875014981927086,19
15.11251875312552,-0.7797517430555972,19
15.122520420070012,-0.7814711625788725,19
15.132522087014504,-0.7265299587430168,19
15.142523753958994,-0.7011802036136412,19
15.152525420903485,-0.6685059951871358,19
15.162527087847975,-0.5976046696946993,19
15.172528754792467,-0.5151415233742873,19
15.182530421736956,-0.43272228985753436,19
15.192532088681448,-0.3566365700966331,19
15.202533755625938,-0.22436274942185924,19
15.21253542257043,-0.12394595007521067,19
15.222537089514919,-0.031243565275891887,19
15.23253875645941,0.0920882848888018,19
15.2425404234039,0.21009579458159883,19
15.252542090348392,0.2844679272809374,19
15.262543757292883,0.37983163126004366,19
15.272545424237373,0.48220107791159644,19
15.282547091181865,0.5516662044874486,19
15.292548758126355,0.6119722548839521,19
15.302550425070846,0.685184968643026,19
15.312552092015336,0.7262832939585248,19
15.322553758959828,0.7567785732334041,19
15.332555425904317,0.7815046407313753,19
15.342557092848809,0.7844216286939153,19
15.352558759793299,0.757371688316491,19
15.36256042673779,0.7465037998415688,19
15.372562093682282,0.7128780604132013,19
15.382563760626772,0.6763065935976255,19
15.392565427571263,0.6117712869555755,19
15.402567094515753,0.5677955486065943,19
15.412568761460244,0.5049975956861499,19
15.422570428404734,0.4536445498839983,19
15.432572095349226,0.41300500363713283,19
15.442573762293716,0.33166125921315914,19
15.452575429238207,0.27494444542694435,19
15.462577096182697,0.2403382275554539,19
15.472578763127188,0.1798915659765225,19
15.48258043007168,0.13262238122594203,19
15.49258209701617,0.09878765086145644,19
15.502583763960661,0.058153650714903755,19
15.512585430905151,0.04444478511591875,19
15.522587097849643,0.01281635469249116,19
15.532588764794133,0.015282130602061496,19
15.542590431738624,-0.00642270874166174,19
15.552592098683114,-0.0039030507751622954,19
15.562593765627605,0.0032101809284255465,19
15.572595432572095,-0.009512845911792144,19
15.582597099516587,0.002936621581320124,19
15.592598766461077,-0.0003344453772104513,19
15.602600433405568,-0.005793505745541411,19
15.61260210035006,-0.021228373233310564,19
15.62260376729455,-0.018897524544706924,19
15.632605434239041,-0.047602498860847255,19
15.64260710118353,-0.07962600391317835,19
15.652608768128022,-0.11262969385408182,19
15.662610435072512,-0.14222046734347388,19
15.672612102017004,-0.19686888963097346,19
15.682613768961494,-0.23740030272895887,19
15.692615435905985,-0.29044219313821595,19
15.702617102850475,-0.3487046370798324,19
15.712618769794966,-0.43208884235281053,19
15.722620436739458,-0.46970883754062653,19
15.732622103683948,-0.5355301156668676,19
15.74262377062844,-0.5907968652755099,19
15.752625437572929,-0.6395419145483732,19
15.76262710451742,-0.6878002592723119,19
15.77262877146191,-0.7284686510209915,19
15.782630438406402,-0.7612842129900834,19
15.792632105350892,-0.7788126433308662,19
15.802633772295383,-0.7755607943551689,19
15.812635439239873,-0.7785323038566311,19
15.822637106184365,-0.7447085953246075,19
15.832638773128856,-0.7178688290180822,19
15.842640440073346,-0.6866598924878862,19
15.852642107017838,-0.6149076661795149,19
15.862643773962327,-0.5398735387656489,19
15.872645440906819,-0.4431734139389822,19
15.882647107851309,-0.3734465011489564,19
15.8926487747958,-0.26672992159784303,19
15.90265044174029,-0.16250068662520323,19
15.912652108684782,-0.07443220299481165,19
15.922653775629271,0.0674098614981367,19
15.932655442573763,0.16027443792651513,19
15.942657109518253,0.2694323786809992,19
15.952658776462744,0.36820350062838647,19
15.962660443407236,0.4469669192505965,19
15.972662110351726,0.5093937849749446,19
15.982663777296217,0.6135717098573452,19
15.992665444240707,0.6595822341872722,19
16.002667111185197,0.7245506241113234,19
16.01266877812969,0.7491703346339802,19
16.02267044507418,0.771937129504703,19
16.03267211201867,0.7835553645000249,19
16.04267377896316,0.7656361621055126,19
16.052675445907653,0.7515023760291469,19
16.062677112852143,0.7241389042435262,19
16.072678779796632,0.6816584963951355,19
16.082680446741126,0.6256484900188163,19
16.092682113685616,0.6065038816035808,19
16.102683780630105,0.5186074239216247,19
16.112685447574595,0.4502414919697335,19
16.12268711451909,0.4060554631329583,19
16.132688781463578,0.35362523767261606,19
16.142690448408068,0.27279836454588813,19
16.152692115352558,0.2447747936967176,19
16.16269378229705,0.20675002520050367,19
16.17269544924154,0.13092104864619172,19
16.18269711618603,0.10940553414281563,19
16.192698783130524,0.0616320769236075,19
16.202700450075014,0.05414480283168832,19
16.212702117019504,0.011821553907195786,19
16.222703783963993,0.016903251976071395,19
16.232705450908487,0.01200367749381723,19
16.242707117852976,0.021477340185409477,19
16.252708784797466,-0.002971873869883908,19
16.262710451741956,-0.006916308959585464,19
16.27271211868645,-0.002020830870062508,19
16.28271378563094,-0.005602408904900969,19
16.29271545257543,-0.00906621829644307,19
16.302717119519922,-0.00999167515029015,19
16.312718786464412,-0.016600809944667422,19
16.322720453408902,-0.05961449761441984,19
16.33272212035339,-0.07838579856850746,19
16.342723787297885,-0.11312179147905056,19
16.352725454242375,-0.14461309980008777,19
16.362727121186865,-0.181176666044613,19
16.372728788131354,-0.22694967417411518,19
16.382730455075848,-0.26200380578411686,19
16.392732122020337,-0.35431918956770503,19
16.402733788964827,-0.39033696334192913,19
16.41273545590932,-0.4601642807566457,19
16.42273712285381,-0.5284125219779505,19
16.4327387897983,-0.5624399980249457,19
16.44274045674279,-0.621284397385024,19
16.452742123687283,-0.679435521611017,19
16.462743790631773,-0.7199058137928767,19
16.472745457576263,-0.7486640619844617,19
16.482747124520753,-0.7814870068360013,19
16.492748791465246,-0.7900952373193166,19
16.502750458409736,-0.792858951680203,19
16.512752125354226,-0.7503807751311805,19
16.522753792298715,-0.7268434019580575,19
16.53275545924321,-0.673159184986088,19
16.5427571261877,-0.6035652189307963,19
16.55275879313219,-0.5619120433990672,19
16.56276046007668,-0.4594357810362614,19
16.57276212702117,-0.3884817481056781,19
16.58276379396566,-0.27656777736735083,19
16.59276546091015,-0.18277225473901004,19
16.602767127854644,-0.05945214635218111,19
16.612768794799134,0.040168376249101204,19
16.622770461743624,0.1502646628693179,19
16.632772128688114,0.25244199168683296,19
16.642773795632607,0.34192821404565743,19
16.652775462577097,0.4419138408735848,19
16.662777129521587,0.5255164508719165,19
16.67277879646608,0.6237066202508132,19
16.68278046341057,0.65897213134436,19
16.69278213035506,0.7066389665966574,19
16.70278379729955,0.7533066535917202,19
16.712785464244043,0.7842031031090108,19
16.722787131188532,0.7895528346544111,19
16.732788798133022,0.7667487841244187,19
16.742790465077512,0.7626721420149283,19
16.752792132022005,0.7448040812686115,19
16.762793798966495,0.6768405007764158,19
16.772795465910985,0.6342973296936301,19
16.782797132855478,0.5824603569631436,19
16.792798799799968,0.5435917773846162,19
16.802800466744458,0.4888786196336964,19
16.812802133688947,0.42222427113039535,19
16.82280380063344,0.3581462346811902,19
16.83280546757793,0.2994773871652689,19
16.84280713452242,0.23483486284934396,19
16.85280880146691,0.21029848705820528,19
16.862810468411404,0.15147452715626142,19
16.872812135355893,0.12127592801284308,19
16.882813802300383,0.06103067272435925,19
16.892815469244876,0.056161113706712514,19
16.902817136189366,0.03236995834384976,19
16.912818803133856,0.0018618421832267053,19
16.922820470078346,0.0074119640459463145,19
16.93282213702284,-0.0008649118840536388,19
16.94282380396733,0.013284717452524032,19
16.95282547091182,-0.005634605010276199,19
16.96282713785631,-0.005642303044142002,19
16.972828804800802,-0.008999352131519686,19
16.98283047174529,-0.004268844200646973,19
16.99283213868978,0.007375613737787556,19
17.002833805634275,-0.014024128848163791,19
17.012835472578764,-0.026513883294825846,19
17.022837139523254,-0.07633195252236923,19
17.032838806467744,-0.10043985991889777,19
17.042840473412237,-0.12810329036475324,19
17.052842140356727,-0.17973378061557996,19
17.062843807301217,-0.21638407722549083,19
17.072845474245707,-0.252116387355059,19
17.0828471411902,-0.3343514379435044,19
17.09284880813469,-0.3923545023294958,19
17.10285047507918,-0.43264874163097716,19
17.112852142023673,-0.5039247972687682,19
17.122853808968163,-0.5721739578569928,19
17.132855475912653,-0.6175252068355569,19
17.142857142857142,-0.6867371729622058,19
17.152858809801636,-0.7209049414518223,19
17.162860476746125,-0.7416165068787651,19
17.172862143690615,-0.7751234983809685,19
17.182863810635105,-0.7747864342050012,19
17.1928654775796,-0.7879746252737052,19
17.202867144524088,-0.7643892672503422,19
17.212868811468578,-0.749059914600508,19
17.222870478413068,-0.6937061548263349,19
17.23287214535756,-0.6343318674276155,19
17.24287381230205,-0.5713855920968782,19
17.25287547924654,-0.48770391170778177,19
17.262877146191034,-0.39976866253243326,19
17.272878813135524,-0.31044039060581946,19
17.282880480080014,-0.18882656868258618,19
17.292882147024503,-0.08382014424523189,19
17.302883813968997,0.022594250865944836,19
17.312885480913486,0.13555383608336416,19
17.322887147857976,0.24471955296037254,19
17.332888814802466,0.32758553132775886,19
17.34289048174696,0.4406960871627868,19
17.35289214869145,0.5154888393062164,19
17.36289381563594,0.5911876833531716,19
17.372895482580432,0.653065436660956,19
17.382897149524922,0.6988279532556615,19
17.392898816469412,0.7343291592155997,19
17.4029004834139,0.7773791822819411,19
17.412902150358395,0.7724128066286939,19
17.422903817302885,0.758230195245336,19
17.432905484247375,0.7589981028833613,19
17.442907151191864,0.7346353114473766,19
17.452908818136358,0.7014151942763379,19
17.462910485080847,0.6581956351374356,19
17.472912152025337,0.6094562295147959,19
17.48291381896983,0.5416421714510017,19
17.49291548591432,0.49367664720864596,19
17.50291715285881,0.41873330843220385,19
17.5129188198033,0.37134867760406454,19
17.522920486747793,0.32772541925488885,19
17.532922153692283,0.23686003033174088,19
17.542923820636773,0.21535745305402673,19
17.552925487581263,0.14408645503227768,19
17.562927154525756,0.11809399059624673,19
17.572928821470246,0.08844392157733286,19
17.582930488414735,0.05629984395283827,19
17.59293215535923,0.045157595552505175,19
17.60293382230372,0.03653151492465262,19
17.61293548924821,0.017732923546342975,19
17.622937156192698,0.018575468244501382,19
17.63293882313719,0.005971225374559703,19
17.64294049008168,0.007457713745223455,19
17.65294215702617,0.005401082953875373,19
17.66294382397066,0.014757966214262853,19
17.672945490915154,-0.0023103956829232312,19
17.682947157859644,-0.025892513193512996,19
17.692948824804134,-0.011519429524774022,19
17.702950491748627,-0.01925868770397234,19
17.712952158693117,-0.05891067724333705,19
17.722953825637607,-0.08668735808067692,19
17.732955492582096,-0.13412668446083115,19
17.74295715952659,-0.1788967382363064,19
17.75295882647108,-0.2115212730293072,19
17.76296049341557,-0.25329458895858004,19
17.77296216036006,-0.30930836736097944,19
17.782963827304552,-0.3695951661681474,19
17.792965494249042,-0.448374329068027,19
17.802967161193532,-0.5104903014723041,19
17.812968828138025,-0.5553256960508195,19
17.822970495082515,-0.6143561172711591,19
17.832972162027005,-0.6543227019614082,19
17.842973828971495,-0.7113170736679361,19
17.852975495915988,-0.7268712816549705,19
17.862977162860478,-0.7736134690466211,19
17.872978829804968,-0.7624179241536484,19
17.882980496749457,-0.7689779307564557,19
17.89298216369395,-0.7483878253261939,19
17.90298383063844,-0.7406079047545946,19
17.91298549758293,-0.6627226329460972,19
17.92298716452742,-0.655888403306673,19
17.932988831471913,-0.5749439843516054,19
17.942990498416403,-0.5124275606157194,19
17.952992165360893,-0.40719550563025525,19
17.962993832305386,-0.3204753491407348,19
17.972995499249876,-0.231490232287741,19
17.982997166194366,-0.1049470176206313,19
17.992998833138856,-0.010186473022005713,19
18.00300050008335,0.10229538044813272,19
18.01300216702784,0.20742042391545787,19
18.02300383397233,0.3094843637398323,19
18.03300550091682,0.4230771881510539,19
18.04300716786131,0.48530172484615436,19
18.0530088348058,0.5633433049943507,19
18.06301050175029,0.6194237072724355,19
18.073012168694785,0.6814861009999051,19
18.083013835639274,0.7409352136288159,19
18.093015502583764,0.7581651835534727,19
18.103017169528254,0.7646141367283151,19
18.113018836472747,0.7695728701435456,19
18.123020503417237,0.7595847050013549,19
18.133022170361727,0.7513589130413363,19
18.143023837306217,0.692759550071015,19
18.15302550425071,0.6780994889660868,19
18.1630271711952,0.6166362595751865,19
18.17302883813969,0.5549926080959149,19
18.183030505084183,0.5087422329480005,19
18.193032172028673,0.44302802215202336,19
18.203033838973163,0.3831771287780597,19
18.213035505917652,0.3301771563631245,19
18.223037172862146,0.2653585437670245,19
18.233038839806635,0.19679334207813567,19
18.243040506751125,0.171381778857756,19
18.253042173695615,0.11965929142792027,19
18.26304384064011,0.07719820614029674,19
18.273045507584598,0.05263697943950503,19
18.283047174529088,0.047895596703301915,19
18.29304884147358,0.020189872716712902,19
18.30305050841807,0.0012955905320907197,19
18.31305217536256,-0.003630169607701363,19
18.32305384230705,0.006167967658442192,19
18.333055509251544,-0.012314942248924878,19
18.343057176196034,0.0011097584709165293,19
18.353058843140523,-0.0184727408309284,19
18.363060510085013,-0.015623125095508157,19
18.373062177029507,-0.0021475366059351755,19
18.383063843973996,-0.025153937084581315,19
18.393065510918486,-0.02874503989752618,19
18.40306717786298,-0.05462049370414208,19
18.41306884480747,-0.08662913344577834,19
18.42307051175196,-0.12453978580975213,19
18.43307217869645,-0.1565663704573938,19
18.443073845640942,-0.1974587477437736,19
18.453075512585432,-0.25845678592177074,19
18.463077179529922,-0.299932332621876,19
18.47307884647441,-0.3615647567755847,19
18.483080513418905,-0.43108649842611696,19
18.493082180363395,-0.4758953335260019,19
18.503083847307884,-0.5429322977289357,19
18.513085514252378,-0.6095001116511414,19
18.523087181196868,-0.6576818284459902,19
18.533088848141357,-0.7088214326703366,19
18.543090515085847,-0.742662793945918,19
18.55309218203034,-0.7531270883111097,19
18.56309384897483,-0.7760799692170549,19
18.57309551591932,-0.7724313512316311,19
18.58309718286381,-0.76196186489544,19
18.593098849808303,-0.7451609845184767,19
18.603100516752793,-0.708782422438232,19
18.613102183697283,-0.6396390189846324,19
18.623103850641776,-0.5970128117230983,19
18.633105517586266,-0.528390343087539,19
18.643107184530756,-0.4349170551337048,19
18.653108851475245,-0.34298380962008873,19
18.66311051841974,-0.22984591020869993,19
18.67311218536423,-0.126207766810592,19
18.68311385230872,-0.043879882779032514,19
18.693115519253208,0.07480847944011432,19
18.7031171861977,0.19102083543706785,19
18.71311885314219,0.2791229106573123,19
18.72312052008668,0.37450910948021954,19
18.73312218703117,0.48093255994266226,19
18.743123853975664,0.5633862117645383,19
18.753125520920154,0.6143220705415443,19
18.763127187864644,0.6844934704359108,19
18.773128854809137,0.7330102354541191,19
18.783130521753627,0.7846225122000594,19
18.793132188698117,0.77775482085825,19
18.803133855642606,0.7802276597535515,19
18.8131355225871,0.7788392790308577,19
18.82313718953159,0.7552254129298553,19
18.83313885647608,0.7070145206214309,19
18.84314052342057,0.6874995043346118,19
18.853142190365062,0.6245313252812177,19
18.863143857309552,0.5648854678110721,19
18.873145524254042,0.5131249522368861,19
18.883147191198535,0.45573648939021544,19
18.893148858143025,0.3969796488919989,19
18.903150525087515,0.3370687611221329,19
18.913152192032005,0.25660164632809684,19
18.923153858976498,0.23221661650608674,19
18.933155525920988,0.16544014487078393,19
18.943157192865478,0.1211725392846421,19
18.953158859809967,0.08035045321495549,19
18.96316052675446,0.0807379384555498,19
18.97316219369895,0.03485584824469419,19
18.98316386064344,0.028453796923162498,19
18.993165527587934,0.02647751817193162,19
19.003167194532423,-0.00014895149420281282,19
19.013168861476913,0.000275587382176745,19
19.023170528421403,0.0015061156727064942,19
19.033172195365896,0.006226479678043443,19
19.043173862310386,0.02146197853575194,19
19.053175529254876,-0.006079774960146242,19
19.063177196199366,-0.009409763118246378,19
19.07317886314386,-0.018129701695147875,19
19.08318053008835,-0.008379599989875478,19
19.09318219703284,-0.06264738471426948,19
19.103183863977332,-0.07462297921649513,19
19.11318553092182,-0.10755950764546655,19
19.12318719786631,-0.15245251381852692,19
19.1331888648108,-0.19320468176786076,19
19.143190531755295,-0.25909743724879714,19
19.153192198699784,-0.2906663534633562,19
19.163193865644274,-0.34919518921456716,19
19.173195532588764,-0.42654831128009096,19
19.183197199533257,-0.45385020020901756,19
19.193198866477747,-0.5284594401999199,19
19.203200533422237,-0.5880823992128653,19
19.21320220036673,-0.6445893737602174,19
19.22320386731122,-0.6916701061606054,19
19.23320553425571,-0.7297038956457834,19
19.2432072012002,-0.7735807333271001,19
19.253208868144693,-0.7792542619182177,19
19.263210535089183,-0.7814302696527445,19
19.273212202033672,-0.7771718378632888,19
19.283213868978162,-0.7473536741280712,19
19.293215535922656,-0.7177271037252994,19
19.303217202867145,-0.656285079176028,19
19.313218869811635,-0.5993241103337449,19
19.32322053675613,-0.5547785522260584,19
19.33322220370062,-0.4306912047717508,19
19.343223870645108,-0.35619818865450037,19
19.353225537589598,-0.2638550339174419,19
19.36322720453409,-0.1547066029994054,19
19.37322887147858,-0.04275243843520182,19
19.38323053842307,0.06152781147375254,19
19.39323220536756,0.16799724500335608,19
19.403233872312054,0.27909978012293624,19
19.413235539256544,0.36532640852982856,19
19.423237206201033,0.45607941817505593,19
19.433238873145523,0.5599314403182803,19
19.443240540090017,0.6320184168557715,19
19.453242207034506,0.6802507717746636,19
19.463243873978996,0.7193645782599676,19
19.47324554092349,0.7462431634433747,19
19.48324720786798,0.7757482961145968,19
19.49324887481247,0.7576198942252084,19
19.50325054175696,0.7692189392938673,19
19.513252208701452,0.754343098227064,19
19.523253875645942,0.7261862795587175,19
19.53325554259043,0.6848746891241775,19
19.54325720953492,0.6434262294123327,19
19.553258876479415,0.5735758133053201,19
19.563260543423905,0.5288410933677028,19
19.573262210368394,0.46144764379470554,19
19.583263877312888,0.3964308445058334,19
19.593265544257378,0.35901913684198805,19
19.603267211201867,0.3170564433843399,19
19.613268878146357,0.23438883800729818,19
19.62327054509085,0.18875603112638814,19
19.63327221203534,0.15209732775889365,19
19.64327387897983,0.12332962800412933,19
19.65327554592432,0.0637772084256775,19
19.663277212868813,0.039641750676476115,19
19.673278879813303,0.03422838750225051,19
19.683280546757793,0.007081785822393168,19
19.693282213702286,-0.006152256723429285,19
19.703283880646776,0.0049804984543429945,19
19.713285547591266,-0.009110622565948084,19
19.723287214535755,0.005543095840453568,19
19.73328888148025,0.008008074459189482,19
19.74329054842474,-0.0011110884654342732,19
19.75329221536923,0.0003899595724575636,19
19.763293882313718,0.0009687403783808207,19
19.77329554925821,-0.032170480239722056,19
19.7832972162027,-0.04081651617630414,19
19.79329888314719,-0.06049176264985382,19
19.803300550091684,-0.09979955437330203,19
19.813302217036174,-0.1582518930461669,19
19.823303883980664,-0.1855946116621839,19
19.833305550925154,-0.23331068057731627,19
19.843307217869647,-0.2928987537122032,19
19.853308884814137,-0.324268345014892,19
19.863310551758627,-0.39884601974385625,19
19.873312218703116,-0.45928059525859954,19
19.88331388564761,-0.5362966834389423,19
19.8933155525921,-0.5843005975385277,19
19.90331721953659,-0.6387664405451056,19
19.913318886481083,-0.6804475692002431,19
19.923320553425572,-0.720604478194776,19
19.933322220370062,-0.7449353873598856,19
19.943323887314552,-0.7734779243597235,19
19.953325554259045,-0.7839106639031016,19
19.963327221203535,-0.8044474227398922,19
19.973328888148025,-0.7426891974446616,19
19.983330555092515,-0.7316726212443505,19
19.993332222037008,-0.6699339101799839,19
20.003333888981498,-0.617489250268617,19
20.013335555925988,-0.5583057405813961,19
20.02333722287048,-0.44783793067464894,19
20.03333888981497,-0.3826567160179344,19
20.04334055675946,-0.26419187125345545,19
20.05334222370395,-0.17805137797399181,19
20.063343890648444,-0.06465455646744596,19
20.073345557592933,0.046832812575873746,19
20.083347224537423,0.1556527837552836,19
20.093348891481913,0.25438317892693557,19
20.103350558426406,0.34286407966418614,19
20.113352225370896,0.4545735022715804,19
20.123353892315386,0.5211128699690246,19
20.133355559259876,0.5993147161367103,19
20.14335722620437,0.6552312043797347,19
20.15335889314886,0.7236548757097331,19
20.16336056009335,0.7410072521878573,19
20.173362227037842,0.7709445918106782,19
20.18336389398233,0.7693893959815833,19
20.19336556092682,0.7799971192140289,19
20.20336722787131,0.751265484834491,19
20.213368894815805,0.7260683657187309,19
20.223370561760294,0.7087327191667993,19
20.233372228704784,0.6446433471661214,19
20.243373895649274,0.5960322745267013,19
20.253375562593767,0.5418246250927509,19
20.263377229538257,0.4783165352523991,19
20.273378896482747,0.4300175719766109,19
20.28338056342724,0.36297017329329917,19
20.29338223037173,0.31026187876954,19
20.30338389731622,0.23997745286506394,19
20.31338556426071,0.18887279072499427,19
20.323387231205203,0.15561392505666072,19
20.333388898149693,0.10486772125953497,19
20.343390565094182,0.0702571159144602,19
20.353392232038672,0.06298259700314908,19
20.363393898983166,0.034879675257264924,19
20.373395565927655,0.013507104748047116,19
20.383397232872145,0.02550625237478318,19
20.39339889981664,-0.0067673169640333364,19
20.40340056676113,-0.005538461161584168,19
20.413402233705618,0.005438954623080241,19
20.423403900650108,-0.006232200289097687,19
20.4334055675946,-0.0018099957688707635,19
20.44340723453909,0.006727588877372081,19
20.45340890148358,-0.018382664549959533,19
20.46341056842807,-0.032275404296460544,19
20.473412235372564,-0.02746088921728597,19
20.483413902317054,-0.06294356418250455,19
20.493415569261543,-0.09128211482685872,19
20.503417236206037,-0.13080340358767287,19
20.513418903150527,-0.17520205919348658,19
20.523420570095016,-0.21302178334235677,19
20.533422237039506,-0.2823911544329787,19
20.543423903984,-0.3310573280013673,19
20.55342557092849,-0.38135185862224974,19
20.56342723787298,-0.4629073395559471,19
20.57342890481747,-0.5170255026206001,19
20.583430571761962,-0.5751605199528269,19
20.593432238706452,-0.6032479451418562,19
20.60343390565094,-0.6929475282376192,19
20.613435572595435,-0.7188209349960514,19
20.623437239539925,-0.7542595199330434,19
20.633438906484415,-0.7599846807693721,19
20.643440573428904,-0.7903280745748902,19
20.653442240373398,-0.7689821131886239,19
20.663443907317887,-0.7608585068817695,19
20.673445574262377,-0.723389742517852,19
20.683447241206867,-0.6802384892156909,19
20.69344890815136,-0.6513883818701354,19
20.70345057509585,-0.5670452323138909,19
20.71345224204034,-0.4969187981893568,19
20.723453908984833,-0.3909955550187332,19
20.733455575929323,-0.3030562503825783,19
20.743457242873813,-0.18728862887113862,19
20.753458909818303,-0.08551228954846413,19
20.763460576762796,0.02641539265494648,19
20.773462243707286,0.1270858134432614,19
20.783463910651776,0.2267331418999181,19
20.793465577596265,0.3272554434455397,19
20.80346724454076,0.4404763356597719,19
20.81346891148525,0.5206269161603465,19
20.82347057842974,0.5899820752957647,19
20.83347224537423,0.6613605540494553,19
20.84347391231872,0.7021105207523354,19
20.85347557926321,0.7339778985234802,19
20.8634772462077,0.7627925394971452,19
20.873478913152194,0.7788561469867183,19
20.883480580096684,0.7826748481689687,19
20.893482247041174,0.7686684736216081,19
20.903483913985664,0.733839661667915,19
20.913485580930157,0.7213542351795948,19
20.923487247874647,0.6595817926430698,19
20.933488914819137,0.6010590146562618,19
20.943490581763626,0.5404408820541418,19
20.95349224870812,0.4810811912195512,19
20.96349391565261,0.42988387635171993,19
20.9734955825971,0.38247031546654586,19
20.983497249541593,0.30613851592805846,19
20.993498916486082,0.2313008188002929,19
21.003500583430572,0.20544133460023595,19
21.013502250375062,0.1609061764356637,19
21.023503917319555,0.10411354605922701,19
21.033505584264045,0.0913610350494151,19
21.043507251208535,0.050002947077041324,19
21.053508918153025,0.048127115488181244,19
21.063510585097518,0.002027464316019835,19
21.073512252042008,0.007917671583982728,19
21.083513918986498,0.019341785139986713,19
21.09351558593099,0.010273076492187599,19
21.10351725287548,-0.0009899466959046852,19
21.11351891981997,0.0011489435653846553,19
21.12352058676446,0.00471794037777363,19
21.133522253708954,0.007280975872666417,19
21.143523920653443,-0.003943197525565115,19
21.153525587597933,-0.018731063433011428,19
21.163527254542423,-0.05547207077328013,19
21.173528921486916,-0.04470318784460672,19
21.183530588431406,-0.06832651473748565,19
21.193532255375896,-0.11563133163905723,19
21.20353392232039,-0.1550905545461393,19
21.21353558926488,-0.22962454027514684,19
21.22353725620937,-0.26347259962948166,19
21.23353892315386,-0.303556703131419,19
21.243540590098352,-0.3851795731593369,19
21.25354225704284,-0.45013388035312724,19
21.26354392398733,-0.5013086970343286,19
21.27354559093182,-0.570412623225005,19
21.283547257876315,-0.6192918704908037,19
21.293548924820804,-0.6822996512392757,19
21.303550591765294,-0.7303495362978848,19
21.313552258709787,-0.7446793269705978,19
21.323553925654277,-0.7701907824935166,19
21.333555592598767,-0.7705322372579412,19
21.343557259543257,-0.7943262455824723,19
21.35355892648775,-0.755639944747708,19
21.36356059343224,-0.7433542021522996,19
21.37356226037673,-0.693311991359099,19
21.38356392732122,-0.6483832772862891,19
21.393565594265713,-0.5759133510959922,19
21.403567261210203,-0.48460758566205087,19
21.413568928154692,-0.4232110840534583,19
21.423570595099186,-0.3022522660178984,19
21.433572262043675,-0.20729013179280192,19
21.443573928988165,-0.0953050718073531,19
21.453575595932655,0.011418902736813619,19
21.46357726287715,0.1075798680874284,19
21.473578929821638,0.2112109751630527,19
21.483580596766128,0.3270502821327689,19
21.493582263710618,0.39254429660385926,19
21.50358393065511,0.5168781427389938,19
21.5135855975996,0.5728313837357101,19
21.52358726454409,0.634265916417623,19
21.533588931488584,0.6969350868684007,19
21.543590598433074,0.7222841397395624,19
21.553592265377564,0.7736535745385835,19
21.563593932322053,0.7878028635457606,19
21.573595599266547,0.7852613963047561,19
21.583597266211036,0.7633392356778952,19
21.593598933155526,0.7537213359040289,19
21.603600600100016,0.7042973205082464,19
21.61360226704451,0.6763497370672518,19
21.623603933989,0.630559523244855,19
21.63360560093349,0.5556753854855566,19
21.64360726787798,0.49724713003185744,19
21.653608934822472,0.432151509390935,19
21.663610601766962,0.38474214749193986,19
21.67361226871145,0.3464946350924394,19
21.683613935655945,0.26139372818282847,19
21.693615602600435,0.210622032556561,19
21.703617269544925,0.15570399872737206,19
21.713618936489414,0.1370231053180442,19
21.723620603433908,0.07715008172922246,19
21.733622270378397,0.0510108502141937,19
21.743623937322887,0.0360821783502403,19
21.753625604267377,0.023704283040625673,19
21.76362727121187,0.003100630642315162,19
21.77362893815636,-0.004284159315390097,19
21.78363060510085,0.008329034165073985,19
21.793632272045343,0.006834300496220526,19
21.803633938989833,0.02004429240513223,19
21.813635605934323,7.5415669611287e-05,19
21.823637272878813,-0.023262123437349232,19
21.833638939823306,-0.01817544187853837,19
21.843640606767796,-0.03005073563130161,19
21.853642273712286,-0.026770244032213706,19
21.863643940656775,-0.06522741892765788,19
21.87364560760127,-0.09309130615103992,19
21.88364727454576,-0.10134358030006578,19
21.893648941490248,-0.14692065596521162,19
21.90365060843474,-0.20687802277854397,19
21.91365227537923,-0.2595483660390107,19
21.92365394232372,-0.317268608185392,19
21.93365560926821,-0.36321379981996343,19
21.943657276212704,-0.4273869252685652,19
21.953658943157194,-0.48106424102071316,19
21.963660610101684,-0.5453478486505636,19
21.973662277046174,-0.6201699421501685,19
21.983663943990667,-0.6473509601537389,19
21.993665610935157,-0.7040383696206456,19
22.003667277879646,-0.7002444500656887,19
22.01366894482414,-0.7549772189791828,19
22.02367061176863,-0.7713761262284192,19
22.03367227871312,-0.7832636465847388,19
22.04367394565761,-0.7601941907203895,19
22.053675612602103,-0.7197889786553999,19
22.063677279546592,-0.7002940475064137,19
22.073678946491082,-0.6583855234216652,19
22.083680613435572,-0.6062280754534889,19
22.093682280380065,-0.5127322477374471,19
22.103683947324555,-0.43912421721839917,19
22.113685614269045,-0.3423949172759945,19
22.123687281213538,-0.23639991764280352,19
22.133688948158028,-0.13053141587540917,19
22.143690615102518,-0.017838497315181223,19
22.153692282047007,0.10109187282272075,19
22.1636939489915,0.20093573007154933,19
22.17369561593599,0.3117468049212894,19
22.18369728288048,0.3953478492430964,19
22.19369894982497,0.48290011075530964,19
22.203700616769463,0.5540046685301901,19
22.213702283713953,0.6288535060485138,19
22.223703950658443,0.6836365472203515,19
22.233705617602936,0.7436916566127318,19
22.243707284547426,0.7511918329247729,19
22.253708951491916,0.7786575457672756,19
22.263710618436406,0.7919826378228062,19
22.2737122853809,0.7669855478798038,19
22.28371395232539,0.741651901913905,19
22.29371561926988,0.7119658170112336,19
22.30371728621437,0.6797719610556399,19
22.313718953158862,0.6183486492676549,19
22.32372062010335,0.5558592088732107,19
22.33372228704784,0.4956916246256103,19
22.34372395399233,0.4514665737540328,19
22.353725620936824,0.38629635018957037,19
22.363727287881314,0.32286752583274547,19
22.373728954825804,0.2890379363914102,19
22.383730621770297,0.23656975484888498,19
22.393732288714787,0.16728654304586374,19
22.403733955659277,0.12042230189242278,19
22.413735622603767,0.09859641213920058,19
22.42373728954826,0.05001284075029911,19
22.43373895649275,0.030780003511676896,19
22.44374062343724,0.02872616635903375,19
22.45374229038173,-0.00019680966947164397,19
22.463743957326223,0.020793735551565964,19
22.473745624270713,0.013401084403980697,19
22.483747291215202,0.002906962489053042,19
22.493748958159696,-0.006018308828842931,19
22.503750625104185,-0.0023823342478031784,19
22.513752292048675,0.002488328328072841,19
22.523753958993165,-0.019056802237955753,19
22.53375562593766,-0.022535083581051184,19
22.543757292882148,-0.018148850164121016,19
22.553758959826638,-0.05308220730309302,19
22.563760626771128,-0.07409566599125589,19
22.57376229371562,-0.12709535167451175,19
22.58376396066011,-0.15076440081189763,19
22.5937656276046,-0.19722024300306046,19
22.603767294549094,-0.24828166495695952,19
22.613768961493584,-0.3047965383034845,19
22.623770628438074,-0.3589904748978974,19
22.633772295382563,-0.4251437947597329,19
22.643773962327057,-0.4786302104554525,19
22.653775629271546,-0.5358461753543863,19
22.663777296216036,-0.5988891012725363,19
22.673778963160526,-0.6473259368414691,19
22.68378063010502,-0.688120980361685,19
22.69378229704951,-0.7292117278402044,19
22.703783963994,-0.7638951309148955,19
22.713785630938492,-0.7679624074923533,19
22.723787297882982,-0.7715891802071305,19
22.733788964827472,-0.7836386522865244,19
22.74379063177196,-0.7371318086745888,19
22.753792298716455,-0.7107355571905486,19
22.763793965660945,-0.6845718024841188,19
22.773795632605434,-0.5953397429215914,19
22.783797299549924,-0.5276831669494818,19
22.793798966494418,-0.44881227928326,19
22.803800633438907,-0.3570628494497703,19
22.813802300383397,-0.2652813054873972,19
22.82380396732789,-0.14568835348156783,19
22.83380563427238,-0.02418777638056932,19
22.84380730121687,0.06262828742059609,19
22.85380896816136,0.17952995566501415,19
22.863810635105853,0.26685346053251024,19
22.873812302050343,0.3855653657460681,19
22.883813968994833,0.47161145992240133,19
22.893815635939323,0.5466849395850998,19
22.903817302883816,0.5972132056259558,19
22.913818969828306,0.6618097794697588,19
22.923820636772795,0.7204592318140418,19
22.93382230371729,0.7578213867916188,19
22.94382397066178,0.7815899968015824,19
22.95382563760627,0.7760845933282077,19
22.963827304550758,0.7915895944970106,19
22.97382897149525,0.7411700973760644,19
22.98383063843974,0.7195536720400978,19
22.99383230538423,0.655031068932481,19
23.00383397232872,0.631821909750592,19
23.013835639273214,0.6005503103161367,19
23.023837306217704,0.5282808792159025,19
23.033838973162194,0.4708771499406125,19
23.043840640106687,0.41003702636286954,19
23.053842307051177,0.3356316814886372,19
23.063843973995667,0.2897989323681435,19
23.073845640940156,0.21811326509294637,19
23.08384730788465,0.18320228946545664,19
23.09384897482914,0.13554103229613454,19
23.10385064177363,0.09426865332929313,19
23.11385230871812,0.059782840900298374,19
23.123853975662612,0.03009944387494366,19
23.133855642607102,0.019909363721019143,19
23.143857309551592,0.003988428156624519,19
23.153858976496082,0.013240873975217532,19
23.163860643440575,0.008406833289591952,19
23.173862310385065,0.005266014889030821,19
23.183863977329555,0.003940088820684,19
23.193865644274048,0.0005404978180058352,19
23.203867311218538,0.004260130411931201,19
23.213868978163028,-1.3041110546096676e-05,19
23.223870645107517,-0.007330204178301509,19
23.23387231205201,-0.03758478716223143,19
23.2438739789965,-0.036099436468900584,19
23.25387564594099,-0.05584612947408597,19
23.26387731288548,-0.09121047695845938,19
23.273878979829973,-0.14306625803679923,19
23.283880646774463,-0.17250843551276315,19
23.293882313718953,-0.23165788571014112,19
23.303883980663446,-0.2691783092097389,19
23.313885647607936,-0.3277128379103117,19
23.323887314552426,-0.4038698906489069,19
23.333888981496916,-0.4470917185728215,19
23.34389064844141,-0.5207202235057384,19
23.3538923153859,-0.5852534519914858,19
23.36389398233039,-0.6309836841285072,19
23.37389564927488,-0.6798445127667376,19
23.38389731621937,-0.7187612300408001,19
23.39389898316386,-0.7508257986078162,19
23.40390065010835,-0.7743083787719952,19
23.413902317052845,-0.7789673790411014,19
23.423903983997334,-0.7766074053195656,19
23.433905650941824,-0.7647279644179608,19
23.443907317886314,-0.7270192939192385,19
23.453908984830807,-0.6805288184595106,19
23.463910651775297,-0.6316593398114522,19
23.473912318719787,-0.5254822084395253,19
23.483913985664277,-0.45711436075668027,19
23.49391565260877,-0.35568113275659896,19
23.50391731955326,-0.285206050838803,19
23.51391898649775,-0.15949903245092406,19
23.523920653442243,-0.0697030835538977,19
23.533922320386733,0.045628379043449956,19
23.543923987331222,0.15935949921389175,19
23.553925654275712,0.26233043468488293,19
23.563927321220206,0.33863372644919004,19
23.573928988164695,0.4659938717677515,19
23.583930655109185,0.514666660366579,19
23.593932322053675,0.6056312936708101,19
23.60393398899817,0.6744988314335301,19
23.613935655942658,0.7123604764269313,19
23.623937322887148,0.7675925781560063,19
23.63393898983164,0.76811391214752,19
23.64394065677613,0.7766228849139727,19
23.65394232372062,0.7791493699871013,19
23.66394399066511,0.766573895257272,19
23.673945657609604,0.7232757237510307,19
23.683947324554094,0.6813414762345406,19
23.693948991498583,0.6323358710066963,19
23.703950658443073,0.5961661171595231,19
23.713952325387567,0.5307604499694212,19
23.723953992332056,0.46838283560909166,19
23.733955659276546,0.40987995956812373,19
23.74395732622104,0.3401604942830158,19
23.75395899316553,0.30209115965607175,19
23.76396066011002,0.22595405396341373,19
23.77396232705451,0.18728874779834123,19
23.783963993999002,0.13512133779917251,19
23.793965660943492,0.10118130847193849,19
23.80396732788798,0.06945629552009876,19
23.81396899483247,0.041697218656273065,19
23.823970661776965,0.020430258468080165,19
23.833972328721455,-3.913673695863859e-05,19
23.843973995665944,0.003998490476478135,19
23.853975662610434,-0.0012403517342963835,19
23.863977329554928,-0.016855880866606106,19
23.873978996499417,0.00037086109307994105,19
23.883980663443907,0.012895154354692236,19
23.8939823303884,-0.01691756132152807,19
23.90398399733289,-0.005591275053498855,19
23.91398566427738,-0.013382832083172397,19
23.92398733122187,-0.02427669546350853,19
23.933988998166363,-0.04129005534234658,19
23.943990665110853,-0.060297271157250365,19
23.953992332055343,-0.09015276708387812,19
23.963993998999833,-0.12147016167479635,19
23.973995665944326,-0.17605649758249406,19
23.983997332888816,-0.2242987726941256,19
23.993998999833305,-0.2779317598159768,19
24.0040006667778,-0.32232805267289927,19
24.01400233372229,-0.41245063937910886,19
24.02400400066678,-0.44990623675290353,19
24.034005667611268,-0.5076987536333888,19
24.04400733455576,-0.5604533027300751,19
24.05400900150025,-0.6291838474856828,19
24.06401066844474,-0.6611340058234114,19
24.07401233538923,-0.7010806665150621,19
24.084014002333724,-0.7421765866878869,19
24.094015669278214,-0.7569973354390652,19
24.104017336222704,-0.7804707404234342,19
24.114019003167197,-0.7706018283156078,19
24.124020670111687,-0.7518381882275653,19
24.134022337056177,-0.7268815657954313,19
24.144024004000666,-0.6785260785455779,19
24.15402567094516,-0.6341884179041165,19
24.16402733788965,-0.5592304608630579,19
24.17402900483414,-0.482867936252055,19
24.18403067177863,-0.39571148963705444,19
24.194032338723122,-0.30699602808361537,19
24.204034005667612,-0.19524362377158314,19
24.214035672612102,-0.09771112422443798,19
24.224037339556595,0.023731915995899248,19
24.234039006501085,0.1299864436893501,19
24.244040673445575,0.25802924587004356,19
24.254042340390065,0.35390325784102306,19
24.264044007334558,0.4322884685922122,19
24.274045674279048,0.5016698566378973,19
24.284047341223538,0.5926516249525704,19
24.294049008168027,0.660202214863729,19
24.30405067511252,0.7168250258188655,19
24.31405234205701,0.7296627327558847,19
24.3240540090015,0.7713600131932333,19
24.334055675945994,0.7775546371263488,19
24.344057342890483,0.769013243514701,19
24.354059009834973,0.7734127074630944,19
24.364060676779463,0.7263200983798191,19
24.374062343723956,0.6968197127088421,19
24.384064010668446,0.6494712395435772,19
24.394065677612936,0.5939956432662911,19
24.404067344557426,0.5519343133361868,19
24.41406901150192,0.48066324007086697,19
24.42407067844641,0.4414386892648584,19
24.4340723453909,0.36391174399788945,19
24.444074012335392,0.301737684547349,19
24.45407567927988,0.2572463965200737,19
24.46407734622437,0.18984241019978232,19
24.47407901316886,0.1676342258117888,19
24.484080680113355,0.1276131204231408,19
24.494082347057844,0.08487236406229123,19
24.504084014002334,0.04280644159381847,19
24.514085680946824,0.043846815140941214,19
24.524087347891317,0.028050845726808785,19
24.534089014835807,0.01856695500463148,19
24.544090681780297,0.014508531421536363,19
24.554092348724787,0.005040884818245684,19
24.56409401566928,-0.004364720507992312,19
24.57409568261377,-0.0016611045503752296,19
24.58409734955826,0.0068117160389591785,19
24.594099016502753,0.00914975688047861,19
24.604100683447243,-0.012197083535702126,19
24.614102350391732,-0.036815174463228864,19
24.624104017336222,-0.03811195142330142,19
24.634105684280716,-0.08281167649459453,19
24.644107351225205,-0.07882576752651468,19
24.654109018169695,-0.1422247871676174,19
24.664110685114185,-0.14836433700792412,19
24.67411235205868,-0.1886872961073378,19
24.684114019003168,-0.24810617926619943,19
24.694115685947658,-0.3234776227536247,19
24.70411735289215,-0.3763536089968236,19
24.71411901983664,-0.4505443686970497,19
24.72412068678113,-0.512907451032628,19
24.73412235372562,-0.5829883581876633,19
24.744124020670114,-0.6303899592190297,19
24.754125687614604,-0.6657804588163769,19
24.764127354559093,-0.6942669369107419,19
24.774129021503583,-0.7427954413774008,19
24.784130688448077,-0.7627034626969703,19
24.794132355392566,-0.7824146360518035,19
24.804134022337056,-0.779202276484013,19
24.81413568928155,-0.7557070035432623,19
24.82413735622604,-0.7359552922712604,19
24.83413902317053,-0.6924204939346567,19
24.84414069011502,-0.6596433721236593,19
24.854142357059512,-0.5614452304739252,19
24.864144024004002,-0.4973676218266325,19
24.87414569094849,-0.4014242968045215,19
24.88414735789298,-0.32535832495568007,19
24.894149024837475,-0.19606647595338159,19
24.904150691781965,-0.1165225521730251,19
24.914152358726454,-0.00039532971002489634,19
24.924154025670948,0.1067671051093418,19
24.934155692615438,0.22254026245056938,19
24.944157359559927,0.33064330156209387,19
24.954159026504417,0.4375271475965115,19
24.96416069344891,0.49251995123947295,19
24.9741623603934,0.5801270012786213,19
24.98416402733789,0.6457969906722536,19
24.99416569428238,0.7089006449677668,19
25.004167361226873,0.7347152551076125,19
25.014169028171363,0.7605830074187637,19
25.024170695115853,0.7663019578410896,19
25.034172362060346,0.7783189846555947,19
25.044174029004836,0.7494899565750075,19
25.054175695949326,0.7356512767563897,19
25.064177362893815,0.7172473871868129,19
25.07417902983831,0.6524412758189246,19
25.0841806967828,0.6213874291189188,19
25.09418236372729,0.5471569572000964,19
25.104184030671778,0.5130664504221634,19
25.11418569761627,0.436641723705668,19
25.12418736456076,0.373873827482586,19
25.13418903150525,0.30931454449346124,19
25.144190698449744,0.2522222726006402,19
25.154192365394234,0.20586398030387404,19
25.164194032338724,0.14886923869693658,19
25.174195699283214,0.12619303287710654,19
25.184197366227707,0.0782759241887064,19
25.194199033172197,0.049855704159251314,19
25.204200700116687,0.040876264437102315,19
25.214202367061176,0.029250469765133378,19
25.22420403400567,0.022500134982071596,19
25.23420570095016,0.0020000958186206157,19
25.24420736789465,0.006252870193894164,19
25.25420903483914,0.0018357447819315976,19
25.264210701783632,-0.0026797461541172695,19
25.274212368728122,0.0011744424768589522,19
25.284214035672612,-0.005724829643241414,19
25.294215702617105,-0.02012454870949406,19
25.304217369561595,-0.019985672016701223,19
25.314219036506085,-0.031913085191646796,19
25.324220703450575,-0.05873498207072452,19
25.334222370395068,-0.08870018277933385,19
25.344224037339558,-0.10688487138793218,19
25.354225704284048,-0.1609840691812114,19
25.364227371228537,-0.18506986935019654,19
25.37422903817303,-0.262230544285603,19
25.38423070511752,-0.3125018290945553,19
25.39423237206201,-0.38449514485180064,19
25.404234039006504,-0.44236383203133817,19
25.414235705950993,-0.49871604706556394,19
25.424237372895483,-0.5328287411845744,19
25.434239039839973,-0.6017666805621222,19
25.444240706784466,-0.6527148158834067,19
25.454242373728956,-0.705696994314138,19
25.464244040673446,-0.7328907475257534,19
25.474245707617936,-0.7765566480466968,19
25.48424737456243,-0.7733648759180248,19
25.49424904150692,-0.7815673203636021,19
25.50425070845141,-0.7458529546655925,19
25.514252375395902,-0.7363142041602239,19
25.52425404234039,-0.6898962485586103,19
25.53425570928488,-0.6517035329180557,19
25.54425737622937,-0.592019037027346,19
25.554259043173865,-0.5232757418766198,19
25.564260710118354,-0.4335579387290928,19
25.574262377062844,-0.3414861189560667,19
25.584264044007334,-0.23405726700566698,19
25.594265710951827,-0.1283600754754716,19
25.604267377896317,-0.018822477933657294,19
25.614269044840807,0.10379438532416904,19
25.6242707117853,0.1969422831373361,19
25.63427237872979,0.30374341334647287,19
25.64427404567428,0.39473512084579204,19
25.65427571261877,0.4939591497821348,19
25.664277379563263,0.5720076577560073,19
25.674279046507753,0.6316255872506779,19
25.684280713452242,0.689085909862146,19
25.694282380396732,0.7351168044586667,19
25.704284047341226,0.751895814015941,19
25.714285714285715,0.7887176645702425,19
25.724287381230205,0.7671245946245263,19
25.7342890481747,0.7821004632283893,19
25.744290715119188,0.7463980233847729,19
25.754292382063678,0.7022233079574556,19
25.764294049008168,0.6664138275881767,19
25.77429571595266,0.6229454369946701,19
25.78429738289715,0.571615376518943,19
25.79429904984164,0.5097110098446039,19
25.80430071678613,0.45453727374699676,19
25.814302383730624,0.379822678080581,19
25.824304050675114,0.32637908709051683,19
25.834305717619603,0.2613604934635825,19
25.844307384564097,0.22772338464864592,19
25.854309051508586,0.1751065454652941,19
25.864310718453076,0.13322851206717962,19
25.874312385397566,0.09322227689233892,19
25.88431405234206,0.05747471109276365,19
25.89431571928655,0.06340905011783583,19
25.90431738623104,0.0286639353330629,19
25.91431905317553,0.01048791259393074,19
25.924320720120022,-0.007620182124294916,19
25.934322387064512,0.004033557588839539,19
25.944324054009,0.005962597755294971,19
25.954325720953495,0.010313339154627406,19
25.964327387897985,-0.0032157762344642393,19
25.974329054842475,-0.010761907224491087,19
25.984330721786964,-0.003378194525977393,19
25.994332388731458,-0.008352872491448554,19
26.004334055675947,-0.03302174647297418,19
26.014335722620437,-0.0625174651926046,19
26.024337389564927,-0.0753629169361956,19
26.03433905650942,-0.09569406766037046,19
26.04434072345391,-0.1342854616173968,19
26.0543423903984,-0.19683100002364493,19
26.06434405734289,-0.23030028044682033,19
26.074345724287383,-0.31752328222654674,19
26.084347391231873,-0.36525197686770194,19
26.094349058176363,-0.43682756216296653,19
26.104350725120856,-0.47407283229057573,19
26.114352392065346,-0.5378913366861933,19
26.124354059009836,-0.5886875897451401,19
26.134355725954325,-0.6414982728864197,19
26.14435739289882,-0.6579046938412562,19
26.15435905984331,-0.7254853093078268,19
26.1643607267878,-0.747538372398196,19
26.174362393732288,-0.7724638144549256,19
26.18436406067678,-0.7970746970155465,19
26.19436572762127,-0.7574236606645701,19
26.20436739456576,-0.7419696267693975,19
26.214369061510254,-0.6871737530118466,19
26.224370728454744,-0.6636352166254561,19
26.234372395399234,-0.6014016479319714,19
26.244374062343724,-0.5061344889613304,19
26.254375729288217,-0.4415607811977027,19
26.264377396232707,-0.3393990570995114,19
26.274379063177197,-0.2793227305328458,19
26.284380730121686,-0.16250230920100317,19
26.29438239706618,-0.033246014064109666,19
26.30438406401067,0.0732734641646942,19
26.31438573095516,0.17795754871018696,19
26.324387397899653,0.2920559186724994,19
26.334389064844142,0.3797077780248815,19
26.344390731788632,0.46782345373446704,19
26.354392398733122,0.5467685424646662,19
26.364394065677615,0.6220386719617543,19
26.374395732622105,0.664347164799746,19
26.384397399566595,0.7056909031805806,19
26.394399066511085,0.7479828817089279,19
26.404400733455578,0.7763547651028256,19
26.414402400400068,0.7781473272402918,19
26.424404067344557,0.7786551618722787,19
26.43440573428905,0.7501138738014288,19
26.44440740123354,0.719523684771698,19
26.45440906817803,0.6699750286010311,19
26.46441073512252,0.619785624686102,19
26.474412402067014,0.5916293281167923,19
26.484414069011503,0.5188212329037166,19
26.494415735955993,0.4638950177050986,19
26.504417402900483,0.4167294742274148,19
26.514419069844976,0.3367850738010108,19
26.524420736789466,0.2837888849552863,19
26.534422403733956,0.23071438321324406,19
26.54442407067845,0.1865794738600451,19
26.55442573762294,0.1354703791663038,19
26.56442740456743,0.09785142015025068,19
26.57442907151192,0.06277791568409695,19
26.584430738456412,0.05523028194542826,19
26.5944324054009,0.020769675468149715,19
26.60443407234539,-0.0016207600866052722,19
26.61443573928988,-0.010825806541872776,19
26.624437406234374,-0.00042434298735147735,19
26.634439073178864,-0.008608430478396613,19
26.644440740123354,-0.012426222777129448,19
26.654442407067847,-0.017546386783124417,19
26.664444074012337,-0.006948063303475244,19
26.674445740956827,-0.006284900408143224,19
26.684447407901317,-0.0207341419859325,19
26.69444907484581,-0.029131824210983082,19
26.7044507417903,-0.03880097893887695,19
26.71445240873479,-0.06583172661748452,19
26.72445407567928,-0.10855476283656125,19
26.734455742623773,-0.14719052091430895,19
26.744457409568263,-0.1875604150793105,19
26.754459076512752,-0.24035743286328437,19
26.764460743457242,-0.27999210584020234,19
26.774462410401735,-0.36361385641704996,19
26.784464077346225,-0.39660273347011404,19
26.794465744290715,-0.48470694589569596,19
26.80446741123521,-0.5221559375095239,19
26.814469078179698,-0.5813897607745127,19
26.824470745124188,-0.6360646898197598,19
26.834472412068678,-0.6842071636627991,19
26.84447407901317,-0.7177250717534889,19
26.85447574595766,-0.7331999935916911,19
26.86447741290215,-0.7848942116776327,19
26.87447907984664,-0.7632060869336122,19
26.884480746791134,-0.7664003290595122,19
26.894482413735624,-0.7550907605703401,19
26.904484080680113,-0.7194910552511966,19
26.914485747624607,-0.6559238144111265,19
26.924487414569096,-0.6212060926403554,19
26.934489081513586,-0.548676178402134,19
26.944490748458076,-0.49028344514277056,19
26.95449241540257,-0.37021113420884855,19
26.96449408234706,-0.2762644218848148,19
26.97449574929155,-0.17767262556050975,19
26.98449741623604,-0.05658106300580553,19
26.994499083180532,0.04211154346245615,19
27.004500750125022,0.1648392198871567,19
27.01450241706951,0.26458844579827867,19
27.024504084014005,0.36109582543933677,19
27.034505750958495,0.4557506065925172,19
27.044507417902985,0.5489918968347249,19
27.054509084847474,0.6091113369903901,19
27.064510751791968,0.6718174338263265,19
27.074512418736457,0.7132033297529049,19
27.084514085680947,0.7428294333371823,19
27.094515752625437,0.7760950570267549,19
27.10451741956993,0.7867312831104106,19
27.11451908651442,0.7537333061095272,19
27.12452075345891,0.7653471803750846,19
27.134522420403403,0.7121870413593345,19
27.144524087347893,0.69471549250386,19
27.154525754292383,0.6418518132453191,19
27.164527421236873,0.5956934054247403,19
27.174529088181366,0.5247463917939389,19
27.184530755125856,0.46887567105776506,19
27.194532422070345,0.4085325005566337,19
27.204534089014835,0.348668806415919,19
27.21453575595933,0.28595663733246046,19
27.22453742290382,0.23435983168960767,19
27.234539089848308,0.18862235812178363,19
27.2445407567928,0.13563930019073356,19
27.25454242373729,0.09976687201405507,19
27.26454409068178,0.0711756447780957,19
27.27454575762627,0.033659916546309246,19
27.284547424570764,0.04313314451983878,19
27.294549091515254,0.005896161187293136,19
27.304550758459744,0.021627552121554067,19
27.314552425404234,-0.01297955529308571,19
27.324554092348727,0.010150698724024076,19
27.334555759293217,-0.012214376935168147,19
27.344557426237706,0.0023532002206164645,19
27.3545590931822,-0.001339916365508387,19
27.36456076012669,-0.028216518495971166,19
27.37456242707118,-0.020768200749805548,19
27.38456409401567,-0.02346399373373212,19
27.394565760960162,-0.037758287515090215,19
27.404567427904652,-0.06425183463268076,19
27.414569094849142,-0.07779204092013264,19
27.424570761793632,-0.1398697587609991,19
27.434572428738125,-0.18770530227330257,19
27.444574095682615,-0.23712364585086196,19
27.454575762627105,-0.2760533263161854,19
27.464577429571595,-0.33080249811821344,19
27.474579096516088,-0.39512051678817944,19
27.484580763460578,-0.44436617143079965,19
27.494582430405067,-0.5175223304241685,19
27.50458409734956,-0.5842304477970072,19
27.51458576429405,-0.6224352971206105,19
27.52458743123854,-0.6940204166228797,19
27.53458909818303,-0.715523035217888,19
27.544590765127523,-0.7384182213646011,19
27.554592432072013,-0.7755296800968915,19
27.564594099016503,-0.7721204679431231,19
27.574595765960993,-0.7824706527978095,19
27.584597432905486,-0.7475026549085986,19
27.594599099849976,-0.7297690962123036,19
27.604600766794466,-0.7003202952259889,19
27.61460243373896,-0.6126440900486142,19
27.62460410068345,-0.5567102004360409,19
27.63460576762794,-0.49036969489052595,19
27.64460743457243,-0.4101686896043111,19
27.65460910151692,-0.2941145055273176,19
27.66461076846141,-0.1908290562596119,19
27.6746124354059,-0.08240953888435637,19
27.68461410235039,0.026286570506790168,19
27.694615769294884,0.12488091767787796,19
27.704617436239374,0.24478031110552984,19
27.714619103183864,0.3281093286851167,19
27.724620770128357,0.44582939439424013,19
27.734622437072847,0.5025104790044621,19
27.744624104017337,0.6039479105583316,19
27.754625770961827,0.6701172588532354,19
27.76462743790632,0.7101699036991921,19
27.77462910485081,0.7406448122395308,19
27.7846307717953,0.7678217329414593,19
27.79463243873979,0.7909244488503596,19
27.804634105684283,0.7739493172051709,19
27.814635772628773,0.7465827201638693,19
27.824637439573262,0.7257386290459336,19
27.834639106517756,0.6990440520713209,19
27.844640773462245,0.6622262689352881,19
27.854642440406735,0.5980245373783126,19
27.864644107351225,0.5580649884099272,19
27.87464577429572,0.5002473711631719,19
27.884647441240208,0.40206242216078186,19
27.894649108184698,0.36360469135427476,19
27.904650775129188,0.3054791140166117,19
27.91465244207368,0.26237361746924265,19
27.92465410901817,0.19050621464409026,19
27.93465577596266,0.14990111890037977,19
27.944657442907154,0.10761319011079615,19
27.954659109851644,0.06148621694091379,19
27.964660776796133,0.0695467919495223,19
27.974662443740623,0.04734593649461086,19
27.984664110685117,0.00952596521491959,19
27.994665777629606,0.0031807527828805453,19
28.004667444574096,0.011277279807932942,19
28.014669111518586,-0.008314542201051626,19
28.02467077846308,0.006832927232674339,19
28.03467244540757,-0.005072039057294175,19
28.04467411235206,-0.01303316581704895,19
28.054675779296552,0.012744388524666195,19
28.064677446241042,-0.0052969134062338125,19
28.07467911318553,-0.022345748016569075,19
28.08468078013002,-0.04255998719990665,19
28.094682447074515,-0.059990170750568776,19
28.104684114019005,-0.1173961205318484,19
28.114685780963494,-0.13177762580045282,19
28.124687447907984,-0.14979844007326495,19
28.134689114852478,-0.21437098280457884,19
28.144690781796967,-0.27754112286060223,19
28.154692448741457,-0.32368513417700523,19
28.164694115685947,-0.3726864560607903,19
