time,ppg_signal,subject_id
0.0,-0.0030311407513644085,17
0.010001666944490749,0.11259824888184886,17
0.020003333888981498,0.20187517155740978,17
0.030005000833472247,0.29306081243816806,17
0.040006667777962995,0.3919207069263469,17
0.050008334722453744,0.47308060689146536,17
0.06001000166694449,0.5305014558894103,17
0.07001166861143523,0.6002391645168591,17
0.08001333555592599,0.646507221596001,17
0.09001500250041675,0.7093824493115746,17
0.10001666944490749,0.7356346712642513,17
0.11001833638939823,0.7641703629101968,17
0.12002000333388899,0.7756059109505642,17
0.13002167027837974,0.7717430506604895,17
0.14002333722287047,0.7625300476014478,17
0.15002500416736123,0.7380621934994398,17
0.16002667111185198,0.7273995815412546,17
0.17002833805634274,0.6919894700875638,17
0.1800300050008335,0.6496770101604232,17
0.19003167194532422,0.6012363484437281,17
0.20003333888981498,0.5557233088783461,17
0.21003500583430573,0.5143052618155098,17
0.22003667277879646,0.42589691279634406,17
0.23003833972328722,0.39877129686635576,17
0.24004000666777797,0.31365234049295715,17
0.2500416736122687,0.27187131884993054,17
0.2600433405567595,0.24575693984152372,17
0.2700450075012502,0.16616982300620373,17
0.28004667444574094,0.13841532022615474,17
0.2900483413902317,0.11339299799105379,17
0.30005000833472245,0.08499153617088312,17
0.31005167527921323,0.050154934906244515,17
0.32005334222370396,0.044701522150213925,17
0.3300550091681947,0.014566346024915026,17
0.3400566761126855,0.024959458418083433,17
0.3500583430571762,0.002641551039023857,17
0.360060010001667,0.008485677597059493,17
0.3700616769461577,-0.008636729956803292,17
0.38006334389064844,-0.008853946386170842,17
0.3900650108351392,-0.011003360871576301,17
0.40006667777962995,0.018302279369335785,17
0.4100683447241207,-0.015329223963964302,17
0.42007001166861146,-0.005441162048121895,17
0.4300716786131022,-0.027996264706895136,17
0.4400733455575929,-0.027454782075308902,17
0.4500750125020837,-0.042872484819604206,17
0.46007667944657443,-0.06712832307959668,17
0.4700783463910652,-0.0971300930908476,17
0.48008001333555594,-0.13808766930719465,17
0.49008168028004667,-0.1643543421937895,17
0.5000833472245374,-0.21935208332949047,17
0.5100850141690282,-0.2556004899034493,17
0.520086681113519,-0.29797355779829804,17
0.5300883480580096,-0.36778308535387827,17
0.5400900150025004,-0.4224560909490795,17
0.5500916819469912,-0.4748511221500041,17
0.5600933488914819,-0.5334891705540804,17
0.5700950158359727,-0.5787519288180265,17
0.5800966827804634,-0.6273411864337258,17
0.5900983497249542,-0.6806112394992482,17
0.6001000166694449,-0.7136467336819945,17
0.6101016836139357,-0.7533668939014863,17
0.6201033505584265,-0.7740095661884137,17
0.6301050175029171,-0.7767914101555017,17
0.6401066844474079,-0.7658281274422862,17
0.6501083513918987,-0.7666429835423858,17
0.6601100183363894,-0.7546645809850978,17
0.6701116852808802,-0.7195265361485091,17
0.680113352225371,-0.6762706364690982,17
0.6901150191698616,-0.6304835242443295,17
0.7001166861143524,-0.560420658233765,17
0.7101183530588432,-0.49494201425982204,17
0.720120020003334,-0.4066128482634733,17
0.7301216869478246,-0.33289344578434377,17
0.7401233538923154,-0.2199324613726159,17
0.7501250208368062,-0.13489575228891051,17
0.7601266877812969,-0.03920399558049794,17
0.7701283547257877,0.06469508656574725,17
0.7801300216702785,0.16542474303836863,17
0.7901316886147691,0.2685171203826883,17
0.8001333555592599,0.3377212604146365,17
0.8101350225037507,0.43055849448180483,17
0.8201366894482414,0.5024039179712925,17
0.8301383563927321,0.5726762726738416,17
0.8401400233372229,0.6270014930403731,17
0.8501416902817136,0.6973519883978553,17
0.8601433572262044,0.718802128243254,17
0.8701450241706952,0.7487724037552953,17
0.8801466911151858,0.7791946334351103,17
0.8901483580596766,0.7708217701270192,17
0.9001500250041674,0.779625753544711,17
0.9101516919486582,0.7622950150943444,17
0.9201533588931489,0.7551069813228055,17
0.9301550258376396,0.7014926137430615,17
0.9401566927821304,0.6633841273396758,17
0.9501583597266211,0.6305293297983393,17
0.9601600266711119,0.5630645145302038,17
0.9701616936156027,0.5232583119679984,17
0.9801633605600933,0.45615679242120727,17
0.9901650275045841,0.4159750227900332,17
1.0001666944490748,0.3588501065804431,17
1.0101683613935657,0.3183116032513943,17
1.0201700283380564,0.24721218990793645,17
1.030171695282547,0.21125072064728764,17
1.040173362227038,0.16469723482356466,17
1.0501750291715286,0.12484209692647341,17
1.0601766961160193,0.10623088913221629,17
1.0701783630605102,0.06660757931162029,17
1.0801800300050008,0.027964694952986327,17
1.0901816969494915,0.040431936414451704,17
1.1001833638939824,0.005846581334338935,17
1.110185030838473,0.03042508787740968,17
1.1201866977829638,-0.016223463474572708,17
1.1301883647274547,-0.0034242014764508484,17
1.1401900316719453,-0.008621028444781178,17
1.1501916986164362,-0.005541704200491158,17
1.160193365560927,-0.0035035951653930395,17
1.1701950325054176,-0.01668092668725888,17
1.1801966994499085,1.5668691719675394e-05,17
1.1901983663943991,-0.014050873046861688,17
1.2002000333388898,-0.0030428527545068307,17
1.2102017002833807,-0.044252343369791024,17
1.2202033672278714,-0.053995583773280204,17
1.230205034172362,-0.1025244303012042,17
1.240206701116853,-0.12282258207524784,17
1.2502083680613436,-0.17165460903553578,17
1.2602100350058343,-0.20438581672718725,17
1.2702117019503252,-0.24320823245541767,17
1.2802133688948159,-0.31012107776322734,17
1.2902150358393065,-0.35696084770091185,17
1.3002167027837974,-0.40446282390236765,17
1.310218369728288,-0.44888133168130523,17
1.3202200366727788,-0.5036290566701679,17
1.3302217036172697,-0.5707445588478828,17
1.3402233705617603,-0.619035899942107,17
1.350225037506251,-0.642586476347938,17
1.360226704450742,-0.7102621909822572,17
1.3702283713952326,-0.749465056062738,17
1.3802300383397232,-0.7456088725897377,17
1.3902317052842141,-0.7931055317676864,17
1.4002333722287048,-0.7838311561908123,17
1.4102350391731955,-0.7812180360794782,17
1.4202367061176864,-0.7455688288441791,17
1.430238373062177,-0.7422646621457979,17
1.440240040006668,-0.6948270292479595,17
1.4502417069511586,-0.6574237597242188,17
1.4602433738956493,-0.5771300342004944,17
1.4702450408401402,-0.5168464773647264,17
1.4802467077846309,-0.4408229776711953,17
1.4902483747291215,-0.32980094939777255,17
1.5002500416736124,-0.24365648522115746,17
1.510251708618103,-0.1666105980888788,17
1.5202533755625938,-0.07362295106101503,17
1.5302550425070847,0.033811616548357355,17
1.5402567094515753,0.12518353564994553,17
1.550258376396066,0.23398111706834634,17
1.560260043340557,0.3245512010020967,17
1.5702617102850476,0.3900158530690523,17
1.5802633772295382,0.477973879707755,17
1.5902650441740291,0.5438641811458479,17
1.6002667111185198,0.6177522529469861,17
1.6102683780630105,0.6794994963646512,17
1.6202700450075014,0.7049033464027465,17
1.630271711951992,0.7425374027399748,17
1.6402733788964827,0.7641715503761689,17
1.6502750458409736,0.7792025920642826,17
1.6602767127854643,0.782861279902661,17
1.670278379729955,0.7626773983503433,17
1.6802800466744459,0.7472944807513947,17
1.6902817136189365,0.7075936901205369,17
1.7002833805634272,0.6931358081653314,17
1.710285047507918,0.6537204306730436,17
1.7202867144524088,0.5905807837577445,17
1.7302883813968994,0.5504185609042229,17
1.7402900483413903,0.48289943976046523,17
1.750291715285881,0.43596361448007004,17
1.7602933822303717,0.3576270539221123,17
1.7702950491748626,0.2971757078126587,17
1.7802967161193533,0.26370249792341843,17
1.7902983830638441,0.22759081610902568,17
1.8003000500083348,0.18003920327338835,17
1.8103017169528255,0.13895013141980514,17
1.8203033838973164,0.11563205959643802,17
1.830305050841807,0.052054584500768226,17
1.8403067177862977,0.034757640604527656,17
1.8503083847307886,0.02926799565379195,17
1.8603100516752793,0.025212695267327185,17
1.87031171861977,0.011172454164635266,17
1.8803133855642609,-0.013464709954274165,17
1.8903150525087515,-0.011994506255295674,17
1.9003167194532422,-0.011256772897672906,17
1.910318386397733,0.009899852781349847,17
1.9203200533422238,0.007778729900211119,17
1.9303217202867144,0.02278628757869831,17
1.9403233872312053,-0.010679978143537269,17
1.950325054175696,-0.011630515533967923,17
1.9603267211201867,-0.024777320664146438,17
1.9703283880646776,-0.04230909161567961,17
1.9803300550091683,-0.056817756072398834,17
1.990331721953659,-0.06464245892945622,17
2.0003333888981496,-0.1160608754034,17
2.0103350558426407,-0.13827877197633923,17
2.0203367227871314,-0.18179824683119286,17
2.030338389731622,-0.2527110524417572,17
2.0403400566761127,-0.2879896764035783,17
2.0503417236206034,-0.3283102988071728,17
2.060343390565094,-0.38102990790947144,17
2.070345057509585,-0.44142058186490596,17
2.080346724454076,-0.5012096615187435,17
2.0903483913985665,-0.5400562677548355,17
2.100350058343057,-0.5886828947835807,17
2.110351725287548,-0.65522989002193,17
2.1203533922320386,-0.6938833528103026,17
2.1303550591765297,-0.7190412794788993,17
2.1403567261210203,-0.7617837741087566,17
2.150358393065511,-0.7645786277644301,17
2.1603600600100017,-0.7798764314748546,17
2.1703617269544924,-0.7730234582124726,17
2.180363393898983,-0.7723497892341098,17
2.190365060843474,-0.7164425533453688,17
2.200366727787965,-0.7069434849619967,17
2.2103683947324555,-0.6632479959871904,17
2.220370061676946,-0.5946063732778635,17
2.230371728621437,-0.5426143746105799,17
2.2403733955659275,-0.46761491085064283,17
2.2503750625104186,-0.38432226916181683,17
2.2603767294549093,-0.2928335300534364,17
2.2703783963994,-0.1999129158382829,17
2.2803800633438907,-0.10486521170616038,17
2.2903817302883813,-0.00815547084750082,17
2.3003833972328724,0.0942017724948129,17
2.310385064177363,0.19017275742846532,17
2.320386731121854,0.2825800663757426,17
2.3303883980663445,0.3777144593091143,17
2.340390065010835,0.45202687318883294,17
2.350391731955326,0.5299634114455042,17
2.360393398899817,0.6025567439346566,17
2.3703950658443076,0.650678811528011,17
2.3803967327887983,0.686219809316719,17
2.390398399733289,0.7528511320454604,17
2.4004000666777796,0.7636042663524064,17
2.4104017336222703,0.7603100491482633,17
2.4204034005667614,0.778104617547812,17
2.430405067511252,0.7744922838798366,17
2.4404067344557427,0.7512653850060143,17
2.4504084014002334,0.750902568825904,17
2.460410068344724,0.6915072261735975,17
2.4704117352892148,0.6542631263296061,17
2.480413402233706,0.6120088538228593,17
2.4904150691781965,0.5616895652469356,17
2.5004167361226872,0.5012793556885174,17
2.510418403067178,0.4527407125497439,17
2.5204200700116686,0.389737150833377,17
2.5304217369561592,0.32927659045494934,17
2.5404234039006504,0.288513006051336,17
2.550425070845141,0.23055664919778457,17
2.5604267377896317,0.19817038947154772,17
2.5704284047341224,0.16659480626829867,17
2.580430071678613,0.10891664492456155,17
2.590431738623104,0.09580943654992895,17
2.600433405567595,0.055272493121322125,17
2.6104350725120855,0.03845681295772659,17
2.620436739456576,0.01373948831822076,17
2.630438406401067,0.030096686392898725,17
2.6404400733455575,0.0004996268624619694,17
2.6504417402900486,0.005109149001128695,17
2.6604434072345393,0.02193641493837241,17
2.67044507417903,-0.0037429388766316908,17
2.6804467411235207,0.0022783799808757253,17
2.6904484080680113,0.013036601696475731,17
2.700450075012502,-0.00710095314179849,17
2.710451741956993,-0.024992877127317688,17
2.720453408901484,-0.02312821107066475,17
2.7304550758459745,-0.03080940014790306,17
2.740456742790465,-0.05360075913261935,17
2.750458409734956,-0.06001075156642792,17
2.7604600766794465,-0.09138196959236458,17
2.7704617436239376,-0.13281554849185287,17
2.7804634105684283,-0.16355411977929105,17
2.790465077512919,-0.19455670841631678,17
2.8004667444574096,-0.25852479456660316,17
2.8104684114019003,-0.3179727641740277,17
2.820470078346391,-0.36886831425773586,17
2.830471745290882,-0.42269415742683353,17
2.8404734122353728,-0.47860416166831915,17
2.8504750791798634,-0.5304071997538508,17
2.860476746124354,-0.5851037973137676,17
2.8704784130688448,-0.6310571914972194,17
2.880480080013336,-0.6639654265412656,17
2.8904817469578266,-0.718585760215849,17
2.9004834139023172,-0.7420461100376192,17
2.910485080846808,-0.7524867259162233,17
2.9204867477912986,-0.7830619982794476,17
2.9304884147357892,-0.7868071429664016,17
2.9404900816802804,-0.7723991637965106,17
2.950491748624771,-0.7495974507747053,17
2.9604934155692617,-0.7465781774927057,17
2.9704950825137524,-0.6755637569061362,17
2.980496749458243,-0.6282335633060862,17
2.9904984164027337,-0.564722997008,17
3.000500083347225,-0.49381818717358783,17
3.0105017502917155,-0.42665198505306035,17
3.020503417236206,-0.3371647798219346,17
3.030505084180697,-0.23368422935074662,17
3.0405067511251875,-0.14439118659445055,17
3.050508418069678,-0.04899098635115038,17
3.0605100850141693,0.06250512885757653,17
3.07051175195866,0.15452894987058027,17
3.0805134189031507,0.24569400081199838,17
3.0905150858476413,0.3298948592737568,17
3.100516752792132,0.41900593044384615,17
3.1105184197366227,0.49960995569448374,17
3.120520086681114,0.559175730144761,17
3.1305217536256045,0.634920161008831,17
3.140523420570095,0.6835422272178026,17
3.150525087514586,0.7330074005914906,17
3.1605267544590765,0.7437019431476662,17
3.170528421403567,0.7471054806972384,17
3.1805300883480583,0.7674759505609433,17
3.190531755292549,0.7700920221141301,17
3.2005334222370396,0.7395278046253652,17
3.2105350891815303,0.73624612680393,17
3.220536756126021,0.7093741694062012,17
3.230538423070512,0.685882351963765,17
3.2405400900150028,0.6488662718456222,17
3.2505417569594934,0.5797138108702818,17
3.260543423903984,0.5132311437724614,17
3.270545090848475,0.4714361022265137,17
3.2805467577929655,0.4178603319712757,17
3.2905484247374566,0.3620129621333556,17
3.3005500916819472,0.33448378654939137,17
3.310551758626438,0.24694916301220618,17
3.3205534255709286,0.22064920298739507,17
3.3305550925154193,0.15668706298503918,17
3.34055675945991,0.12612804449100393,17
3.350558426404401,0.10727780026282191,17
3.3605600933488917,0.05337252034917658,17
3.3705617602933824,0.051200124625633545,17
3.380563427237873,0.010183944327817756,17
3.3905650941823637,0.017436336899698885,17
3.4005667611268544,0.010223122359960098,17
3.4105684280713455,-0.009714599890418613,17
3.420570095015836,0.007525049758218584,17
3.430571761960327,0.009001252758366779,17
3.4405734289048175,-0.008237459805884246,17
3.450575095849308,0.004949315911486888,17
3.460576762793799,-0.0031667623502673317,17
3.47057842973829,0.012685976306464952,17
3.4805800966827807,-0.019814469718003862,17
3.4905817636272714,-0.015332977141858977,17
3.500583430571762,-0.026153269611202797,17
3.5105850975162527,-0.06999442419446925,17
3.5205867644607434,-0.08406510728367657,17
3.5305884314052345,-0.11476547330586688,17
3.540590098349725,-0.1568462510566993,17
3.550591765294216,-0.2041449345507362,17
3.5605934322387065,-0.23750503344986038,17
3.570595099183197,-0.2918930070898714,17
3.5805967661276883,-0.35153093031873256,17
3.590598433072179,-0.4083763786084244,17
3.6006001000166696,-0.4658579876506731,17
3.6106017669611603,-0.5336051096166257,17
3.620603433905651,-0.5613304228422784,17
3.6306051008501417,-0.6055695924901451,17
3.6406067677946328,-0.6677557444761035,17
3.6506084347391234,-0.7000095041256365,17
3.660610101683614,-0.7133005987093822,17
3.670611768628105,-0.7683328318823947,17
3.6806134355725955,-0.7672573432881338,17
3.690615102517086,-0.7885718683716916,17
3.7006167694615772,-0.7489781652373244,17
3.710618436406068,-0.7505359705800025,17
3.7206201033505586,-0.7228925727762074,17
3.7306217702950493,-0.6982844561397452,17
3.74062343723954,-0.6453109657373611,17
3.7506251041840306,-0.58916129061841,17
3.7606267711285217,-0.5024544683737276,17
3.7706284380730124,-0.42257000813433154,17
3.780630105017503,-0.34398611289071335,17
3.7906317719619937,-0.2537683066418809,17
3.8006334389064844,-0.19147575860706514,17
3.810635105850975,-0.0786194146815107,17
3.820636772795466,0.013141575350665628,17
3.830638439739957,0.12815589537548194,17
3.8406401066844476,0.2330721938048304,17
3.8506417736289382,0.2996520831555421,17
3.860643440573429,0.40516925542757976,17
3.87064510751792,0.47564512194080816,17
3.8806467744624107,0.5469783579868227,17
3.8906484414069014,0.633907656969177,17
3.900650108351392,0.6857039784400722,17
3.9106517752958827,0.7040497239220795,17
3.9206534422403734,0.7514140812480331,17
3.9306551091848645,0.7682768474693531,17
3.940656776129355,0.7718999610409425,17
3.950658443073846,0.7734583102596745,17
3.9606601100183365,0.7708959699223586,17
3.970661776962827,0.7443151021184857,17
3.980663443907318,0.7173058157572585,17
3.990665110851809,0.6784193278706377,17
4.000666777796299,0.6542810931055464,17
4.01066844474079,0.5830171901107644,17
4.020670111685281,0.536082435258293,17
4.030671778629772,0.4895465607194635,17
4.040673445574263,0.44070018618348117,17
4.0506751125187535,0.35915568546466986,17
4.060676779463244,0.31687356872393535,17
4.070678446407735,0.27695797896220015,17
4.0806801133522255,0.22372988991894868,17
4.090681780296716,0.1671650733255793,17
4.100683447241207,0.15099325483947298,17
4.1106851141856975,0.10503213239743857,17
4.120686781130188,0.09559574351567003,17
4.130688448074679,0.05469957917434394,17
4.14069011501917,0.03973771669056985,17
4.150691781963661,-0.0039550693951519375,17
4.160693448908152,0.015650249795712074,17
4.170695115852642,0.0013247770556743025,17
4.180696782797133,0.006800217446016313,17
4.190698449741624,0.010145474017245505,17
4.200700116686114,0.005733881779169826,17
4.210701783630605,-0.0024033225492158614,17
4.220703450575096,0.0035174600569574405,17
4.2307051175195864,-0.018953075467230768,17
4.240706784464077,-0.016867697134529642,17
4.250708451408569,-0.0248938082482741,17
4.260710118353059,-0.02163434509934229,17
4.27071178529755,-0.03583922488015448,17
4.280713452242041,-0.07110942096346673,17
4.290715119186531,-0.12025794497437112,17
4.300716786131022,-0.1461512681082705,17
4.310718453075513,-0.18296594194876062,17
4.320720120020003,-0.24883592791245907,17
4.330721786964494,-0.25838161043858704,17
4.340723453908985,-0.3231060464153981,17
4.350725120853475,-0.37065981264451975,17
4.360726787797966,-0.43476921485399883,17
4.370728454742458,-0.5007261811597923,17
4.380730121686948,-0.5319464113760605,17
4.390731788631439,-0.5917013441750737,17
4.40073345557593,-0.6403315658698643,17
4.41073512252042,-0.6985769568583222,17
4.420736789464911,-0.7292637100434107,17
4.430738456409402,-0.754474564240149,17
4.440740123353892,-0.7484021451631917,17
4.450741790298383,-0.7868751683785423,17
4.460743457242874,-0.7697499337255833,17
4.470745124187364,-0.7827550228212702,17
4.480746791131855,-0.7377008553410747,17
4.490748458076347,-0.7034703650266234,17
4.500750125020837,-0.6517235586752554,17
4.510751791965328,-0.604795799562258,17
4.520753458909819,-0.5440654510317425,17
4.530755125854309,-0.47102780590081955,17
4.5407567927988,-0.3928831764354473,17
4.550758459743291,-0.30244567320626575,17
4.560760126687781,-0.1985469513694088,17
4.570761793632272,-0.09690616650166717,17
4.580763460576763,-0.016115834194386464,17
4.590765127521253,0.08933068112706824,17
4.600766794465745,0.17837733739373027,17
4.6107684614102356,0.2875584308468884,17
4.620770128354726,0.39095017899510537,17
4.630771795299217,0.4487714201056702,17
4.640773462243708,0.5168188397030498,17
4.650775129188198,0.5906919118887949,17
4.660776796132689,0.6435612145597286,17
4.67077846307718,0.7028198786940522,17
4.68078013002167,0.7429843068041033,17
4.690781796966161,0.750951543629578,17
4.700783463910652,0.7715642761319443,17
4.710785130855142,0.7675280177314179,17
4.720786797799634,0.7878929892796445,17
4.7307884647441245,0.7555486015709405,17
4.740790131688615,0.7276665502250814,17
4.750791798633106,0.6858972035320368,17
4.7607934655775965,0.6470914863155519,17
4.770795132522087,0.5943176146999671,17
4.780796799466578,0.5592443355858415,17
4.7907984664110685,0.4891298148104614,17
4.800800133355559,0.45958708126399367,17
4.81080180030005,0.40157748047198105,17
4.820803467244541,0.3343541186646753,17
4.830805134189032,0.2806717580633083,17
4.840806801133523,0.23674914820069454,17
4.8508084680780135,0.1830895238102389,17
4.860810135022504,0.15523241599659274,17
4.870811801966995,0.11378732194383637,17
4.8808134689114855,0.09246064002293741,17
4.890815135855976,0.05939235469247861,17
4.900816802800467,0.039196634418462356,17
4.9108184697449575,0.016246163375876206,17
4.920820136689448,-0.005862426673129407,17
4.930821803633939,-0.0028386940210949254,17
4.9408234705784295,-0.000400612288156044,17
4.950825137522921,0.0014493089080793917,17
4.960826804467412,0.0016025714041085959,17
4.970828471411902,0.00889293819181594,17
4.980830138356393,0.0031572538060699934,17
4.990831805300884,-0.008047415942759232,17
5.0008334722453744,-0.01162571655810699,17
5.010835139189865,-0.0005865832501147396,17
5.020836806134356,-0.03350284272110725,17
5.0308384730788465,-0.036491142233858964,17
5.040840140023337,-0.07356132289025105,17
5.050841806967828,-0.09958257327280415,17
5.0608434739123185,-0.12723951343234866,17
5.07084514085681,-0.16187673214486653,17
5.080846807801301,-0.20762277018754946,17
5.090848474745791,-0.2720777260949394,17
5.100850141690282,-0.3271565885092677,17
5.110851808634773,-0.354927531239988,17
5.120853475579263,-0.4153763321477876,17
5.130855142523754,-0.45218557654414215,17
5.140856809468245,-0.5256928141031021,17
5.150858476412735,-0.5727196001718939,17
5.160860143357226,-0.6290060536681508,17
5.170861810301717,-0.6660838152983473,17
5.180863477246208,-0.724571293087001,17
5.190865144190699,-0.7483109350278512,17
5.20086681113519,-0.7744836824573038,17
5.21086847807968,-0.76570165917736,17
5.220870145024171,-0.7533452188004968,17
5.230871811968662,-0.7715806632083534,17
5.240873478913152,-0.7614233237354044,17
5.250875145857643,-0.712075263938559,17
5.260876812802134,-0.6859865832005482,17
5.270878479746624,-0.636705754653612,17
5.280880146691115,-0.5909695459198232,17
5.290881813635606,-0.49490732503756785,17
5.300883480580097,-0.42145883717532406,17
5.310885147524588,-0.3232096746339966,17
5.320886814469079,-0.2418432921169079,17
5.330888481413569,-0.1584141314081719,17
5.34089014835806,-0.04701567910443223,17
5.350891815302551,0.05617585620879802,17
5.360893482247041,0.13958707802575968,17
5.370895149191532,0.24421475469270634,17
5.380896816136023,0.3281781246552618,17
5.390898483080513,0.41540311645082295,17
5.400900150025004,0.4963613438370701,17
5.410901816969495,0.5532020401050977,17
5.420903483913986,0.6242290589390339,17
5.430905150858477,0.6939601801685216,17
5.440906817802968,0.7399949142838191,17
5.450908484747458,0.7701775388621172,17
5.460910151691949,0.7764102103023673,17
5.47091181863644,0.7916305332371965,17
5.48091348558093,0.7724622866257347,17
5.490915152525421,0.7686119578961306,17
5.500916819469912,0.7225406465861706,17
5.510918486414402,0.712989724524263,17
5.520920153358893,0.6630826323566994,17
5.5309218203033845,0.6269825224317611,17
5.540923487247875,0.5828376953337484,17
5.550925154192366,0.514522862624842,17
5.5609268211368565,0.4660422032274895,17
5.570928488081347,0.41650809923297993,17
5.580930155025838,0.3695847719583873,17
5.590931821970329,0.32523840815829114,17
5.600933488914819,0.256979614592346,17
5.61093515585931,0.2219250290782506,17
5.620936822803801,0.17630216098143914,17
5.630938489748291,0.12053811225231617,17
5.640940156692782,0.0891036663980888,17
5.6509418236372735,0.06324052012295481,17
5.660943490581764,0.04554479332653262,17
5.670945157526255,0.04246709203683777,17
5.6809468244707455,0.003370006901518568,17
5.690948491415236,-0.011085933921684443,17
5.700950158359727,0.0015241825072532748,17
5.7109518253042175,-0.001464441316340877,17
5.720953492248708,-0.011044850841313285,17
5.730955159193199,0.011365264031376908,17
5.7409568261376895,0.008065304285033706,17
5.75095849308218,-0.008642581721273204,17
5.760960160026672,-0.01843392914293313,17
5.7709618269711624,-0.016406070312894233,17
5.780963493915653,-0.02745279709907928,17
5.790965160860144,-0.042813762823620385,17
5.8009668278046345,-0.0438502433240854,17
5.810968494749125,-0.08181286826660727,17
5.820970161693616,-0.12888500186027152,17
5.8309718286381065,-0.15665268183268635,17
5.840973495582597,-0.211666424720658,17
5.850975162527088,-0.24004664755716942,17
5.8609768294715785,-0.30131364551535356,17
5.870978496416069,-0.33452903353743785,17
5.880980163360561,-0.401018000774449,17
5.890981830305051,-0.4428162195882186,17
5.900983497249542,-0.5141483820725685,17
5.910985164194033,-0.5704320211679594,17
5.920986831138523,-0.6389802873933437,17
5.930988498083014,-0.6424386268554529,17
5.940990165027505,-0.7029050108775025,17
5.950991831971995,-0.7540963949586619,17
5.960993498916486,-0.7539430104723075,17
5.970995165860977,-0.7580302800513896,17
5.9809968328054675,-0.778799689530868,17
5.990998499749958,-0.7729888080546192,17
6.00100016669445,-0.7539590869942394,17
6.01100183363894,-0.7287101289061253,17
6.021003500583431,-0.7063042613005694,17
6.031005167527922,-0.6548236803188342,17
6.041006834472412,-0.5961337942793179,17
6.051008501416903,-0.5197078827884318,17
6.061010168361394,-0.4540435673739675,17
6.071011835305884,-0.3394488747337905,17
6.081013502250375,-0.27166964868154764,17
6.091015169194866,-0.18824014256764984,17
6.101016836139356,-0.09552693560933495,17
6.111018503083848,0.01924486484324055,17
6.121020170028339,0.12208366234965977,17
6.131021836972829,0.21641995015422102,17
6.14102350391732,0.29443184311645887,17
6.151025170861811,0.3885248419253218,17
6.161026837806301,0.46674052118717785,17
6.171028504750792,0.5408453256341282,17
6.181030171695283,0.6130673550536483,17
6.191031838639773,0.6721620381793341,17
6.201033505584264,0.7194616033366599,17
6.211035172528755,0.7314724064105166,17
6.221036839473245,0.7800246628523013,17
6.231038506417737,0.7701867443600535,17
6.241040173362228,0.7774468948806545,17
6.251041840306718,0.7708124360130749,17
6.261043507251209,0.7436137768339784,17
6.2710451741957,0.7293456449792162,17
6.28104684114019,0.6727098838019288,17
6.291048508084681,0.6465031301298169,17
6.301050175029172,0.6008980982216207,17
6.311051841973662,0.539791303242113,17
6.321053508918153,0.49251473491223835,17
6.331055175862644,0.4343202001299677,17
6.341056842807134,0.3682590674975408,17
6.351058509751626,0.32751871091772033,17
6.361060176696117,0.2627152431676821,17
6.371061843640607,0.2176467079848899,17
6.381063510585098,0.17531447190131733,17
6.391065177529589,0.15545879981921784,17
6.401066844474079,0.08718479663448303,17
6.41106851141857,0.07483221101649255,17
6.421070178363061,0.045971881278810314,17
6.431071845307551,0.047225092363258364,17
6.441073512252042,0.012858714904206935,17
6.451075179196533,0.008009943145639842,17
6.461076846141024,-0.007061707261470179,17
6.471078513085515,0.001335582595049346,17
6.4810801800300055,0.007397926609636455,17
6.491081846974496,-0.0011213871361838636,17
6.501083513918987,0.004219359536622763,17
6.5110851808634775,-0.006231702743432596,17
6.521086847807968,0.010685750265341552,17
6.531088514752459,-0.027309322139388522,17
6.54109018169695,-0.00734898009443276,17
6.55109184864144,-0.039696511870915815,17
6.561093515585931,-0.05930929501301074,17
6.571095182530422,-0.0676808785394879,17
6.581096849474913,-0.10477688116807918,17
6.591098516419404,-0.13847048188556227,17
6.6011001833638945,-0.16057223463499,17
6.611101850308385,-0.2096299496955404,17
6.621103517252876,-0.2787208989529463,17
6.6311051841973665,-0.33177519321150856,17
6.641106851141857,-0.3934501693405371,17
6.651108518086348,-0.4348897802045925,17
6.6611101850308385,-0.4799387237587502,17
6.671111851975329,-0.5383413514678995,17
6.68111351891982,-0.6040358768689754,17
6.6911151858643105,-0.642302634933517,17
6.701116852808802,-0.6894919168685556,17
6.711118519753293,-0.7281925933198843,17
6.721120186697783,-0.7462105175702738,17
6.731121853642274,-0.7734734761626757,17
6.741123520586765,-0.7635927389287939,17
6.7511251875312555,-0.7755892868138394,17
6.761126854475746,-0.7765235082150451,17
6.771128521420237,-0.7246627805115599,17
6.7811301883647275,-0.7063628526574084,17
6.791131855309218,-0.6723009033558633,17
6.801133522253709,-0.5980781993964723,17
6.8111351891982,-0.5355762037040608,17
6.821136856142691,-0.46701698774040723,17
6.831138523087182,-0.4026928219924788,17
6.841140190031672,-0.30672410308784676,17
6.851141856976163,-0.21378964223804664,17
6.861143523920654,-0.11075752935569587,17
6.871145190865144,-0.027558908571612646,17
6.881146857809635,0.09215624911714877,17
6.891148524754126,0.17158660240602705,17
6.901150191698616,0.2663049108548828,17
6.911151858643107,0.34924617190881047,17
6.921153525587598,0.4404740173650771,17
6.931155192532089,0.5281262843702815,17
6.94115685947658,0.5954040923701183,17
6.951158526421071,0.6657507736018764,17
6.961160193365561,0.6828076165633541,17
6.971161860310052,0.7391909894732516,17
6.981163527254543,0.7639799218246331,17
6.991165194199033,0.7660648249343222,17
7.001166861143524,0.786436716982934,17
7.011168528088015,0.7620225330543412,17
7.021170195032505,0.7428973587700448,17
7.031171861976996,0.7288711514988087,17
7.041173528921487,0.688556007606457,17
7.051175195865978,0.6448600052340697,17
7.061176862810469,0.6197751714418223,17
7.07117852975496,0.5686094777501398,17
7.08118019669945,0.5032865070548045,17
7.091181863643941,0.44966299039372026,17
7.101183530588432,0.38887222264988625,17
7.111185197532922,0.3296200188648201,17
7.121186864477413,0.287455444142857,17
7.131188531421904,0.22370069009433047,17
7.141190198366394,0.18524155506773043,17
7.151191865310885,0.16742834819172275,17
7.161193532255377,0.10346699510210125,17
7.171195199199867,0.07868839647088732,17
7.181196866144358,0.07312338042626261,17
7.191198533088849,0.032900834214842224,17
7.201200200033339,0.04448830040882889,17
7.21120186697783,0.024251038600273646,17
7.221203533922321,0.003916439666544161,17
7.231205200866811,0.018066190004996676,17
7.241206867811302,0.01918712334007051,17
7.251208534755793,0.026617082700930293,17
7.261210201700283,0.0010981324186627249,17
7.271211868644774,-0.0049500933398318805,17
7.2812135355892655,0.006745454876148173,17
7.291215202533756,-0.012410271245256652,17
7.301216869478247,-0.00831693992551241,17
7.311218536422738,-0.022614650432127098,17
7.321220203367228,-0.052145564237340895,17
7.331221870311719,-0.07035375475897379,17
7.34122353725621,-0.08318052589976564,17
7.3512252042007,-0.14550014042695905,17
7.361226871145191,-0.16809210913951592,17
7.371228538089682,-0.1989519250233802,17
7.381230205034172,-0.23840762053974496,17
7.391231871978664,-0.3228436369408135,17
7.4012335389231545,-0.34429574853751044,17
7.411235205867645,-0.41231230017935006,17
7.421236872812136,-0.4685451631330748,17
7.4312385397566265,-0.51489448184695,17
7.441240206701117,-0.5606216807864837,17
7.451241873645608,-0.629833806716035,17
7.4612435405900985,-0.673204477652039,17
7.471245207534589,-0.7193084061216554,17
7.48124687447908,-0.7273529664183016,17
7.4912485414235706,-0.7659483725224224,17
7.501250208368061,-0.7725992472539381,17
7.511251875312553,-0.7852150082623509,17
7.5212535422570435,-0.764924805048292,17
7.531255209201534,-0.7601703630385138,17
7.541256876146025,-0.733849470135891,17
7.5512585430905155,-0.6714481704209557,17
7.561260210035006,-0.6341230165038586,17
7.571261876979497,-0.5745120593017788,17
7.5812635439239875,-0.49939874415219465,17
7.591265210868478,-0.4007283209626812,17
7.601266877812969,-0.34999751767435683,17
7.6112685447574595,-0.22737698913042148,17
7.62127021170195,-0.17406165036713642,17
7.631271878646442,-0.06157223753744323,17
7.641273545590932,0.04862566879647556,17
7.651275212535423,0.13184745757114738,17
7.661276879479914,0.234261346234895,17
7.671278546424404,0.3186475238926251,17
7.681280213368895,0.4157131902738279,17
7.691281880313386,0.4739550771404331,17
7.7012835472578764,0.5729920304275878,17
7.711285214202367,0.6357344742984056,17
7.721286881146858,0.6659054441024309,17
7.7312885480913485,0.7319449158679072,17
7.74129021503584,0.7596081047121203,17
7.751291881980331,0.7810563630120471,17
7.761293548924821,0.7758352073537227,17
7.771295215869312,0.7774997638180253,17
7.781296882813803,0.7633993006411658,17
7.791298549758293,0.7293932300109445,17
7.801300216702784,0.7186240148998911,17
7.811301883647275,0.6729905870120871,17
7.821303550591765,0.62036895912892,17
7.831305217536256,0.5895541602201589,17
7.841306884480747,0.530707624201355,17
7.851308551425237,0.4832682627049776,17
7.861310218369729,0.42379300767760764,17
7.87131188531422,0.3715777654602628,17
7.88131355225871,0.3053267633120726,17
7.891315219203201,0.2668525279963645,17
7.901316886147692,0.20753684475385953,17
7.911318553092182,0.16485699408594703,17
7.921320220036673,0.12337321256227063,17
7.931321886981164,0.09488479885679223,17
7.941323553925654,0.07320817644656441,17
7.951325220870145,0.05590922653852026,17
7.961326887814636,0.0188047084865201,17
7.971328554759126,0.005419229479231513,17
7.981330221703618,-0.00017035418792720608,17
7.991331888648109,0.030596899642675923,17
8.001333555592598,0.007949122466938997,17
8.01133522253709,-0.0019179522236079912,17
8.02133688948158,0.0009900311353772614,17
8.031338556426071,-0.006034016629383499,17
8.041340223370563,-0.021770609590124248,17
8.051341890315053,-0.024952980304736312,17
8.061343557259544,-0.021517904101754318,17
8.071345224204034,-0.026127530731918994,17
8.081346891148526,-0.024663123374435436,17
8.091348558093015,-0.06370058441649876,17
8.101350225037507,-0.06862553915036033,17
8.111351891981997,-0.11607507023791025,17
8.121353558926488,-0.13404256292179348,17
8.131355225870978,-0.1942652941390778,17
8.14135689281547,-0.23190803853421044,17
8.151358559759961,-0.28649152555100565,17
8.161360226704451,-0.3246806253841198,17
8.171361893648942,-0.41539316401287046,17
8.181363560593432,-0.44823767764829736,17
8.191365227537924,-0.4968388331181701,17
8.201366894482414,-0.550067985608592,17
8.211368561426905,-0.6084580819902854,17
8.221370228371395,-0.6485540318764063,17
8.231371895315887,-0.6845373159113545,17
8.241373562260376,-0.7120367710138428,17
8.251375229204868,-0.7490163799663271,17
8.261376896149358,-0.7801463002295568,17
8.27137856309385,-0.783458237265002,17
8.28138023003834,-0.7736959402188246,17
8.29138189698283,-0.7675830263842081,17
8.301383563927322,-0.7263271869767576,17
8.311385230871812,-0.7077807765598803,17
8.321386897816303,-0.6628479389025022,17
8.331388564760793,-0.5794245459976649,17
8.341390231705285,-0.5194760327168496,17
8.351391898649775,-0.4529594747585125,17
8.361393565594266,-0.37107371963863883,17
8.371395232538756,-0.29021425939305356,17
8.381396899483248,-0.20270407346572436,17
8.391398566427739,-0.09149160900397735,17
8.401400233372229,0.008719292639560321,17
8.41140190031672,0.086965451086091,17
8.42140356726121,0.21253097103111943,17
8.431405234205702,0.29079619196450335,17
8.441406901150192,0.37266909979199137,17
8.451408568094683,0.4555524838618569,17
8.461410235039173,0.5309311779246634,17
8.471411901983664,0.6092233840889688,17
8.481413568928154,0.6600481339462464,17
8.491415235872646,0.6988188590317653,17
8.501416902817137,0.7436266547080235,17
8.511418569761627,0.7691375318432758,17
8.521420236706119,0.7895106557913867,17
8.531421903650608,0.7721448256518595,17
8.5414235705951,0.7686174673106264,17
8.55142523753959,0.7581893725006463,17
8.561426904484081,0.7170395690976064,17
8.571428571428571,0.6837598425440705,17
8.581430238373063,0.6656870835416162,17
8.591431905317553,0.6028739447782814,17
8.601433572262044,0.5539699904452062,17
8.611435239206534,0.48801116212434925,17
8.621436906151025,0.43206806558252103,17
8.631438573095517,0.3787733657716611,17
8.641440240040007,0.322541917115613,17
8.651441906984498,0.2724499682389114,17
8.661443573928988,0.24259157499505116,17
8.67144524087348,0.20066661278255804,17
8.68144690781797,0.1332572493038558,17
8.691448574762461,0.10172662395831675,17
8.70145024170695,0.08137222006409316,17
8.711451908651442,0.06117393738701156,17
8.721453575595932,0.02580719318876564,17
8.731455242540424,0.028740869075510274,17
8.741456909484915,0.013727062205863292,17
8.751458576429405,0.012358195519199696,17
8.761460243373897,-0.012059145654554397,17
8.771461910318386,-0.004973887362359284,17
8.781463577262878,0.00450927274415287,17
8.791465244207368,-0.013035196593409126,17
8.80146691115186,-0.002756722834394579,17
8.811468578096349,-0.019354510740994008,17
8.82147024504084,0.006424524490616767,17
8.83147191198533,-0.013990020239185701,17
8.841473578929822,-0.023163399023684014,17
8.851475245874314,-0.051868381714773246,17
8.861476912818803,-0.06964602098414858,17
8.871478579763295,-0.11008035211692893,17
8.881480246707785,-0.1270829190727068,17
8.891481913652276,-0.18008602213497069,17
8.901483580596766,-0.21558119010196836,17
8.911485247541258,-0.28659392034669673,17
8.921486914485747,-0.32406646964003066,17
8.931488581430239,-0.3664547152731901,17
8.941490248374729,-0.41800639904473547,17
8.95149191531922,-0.49548892381679016,17
8.96149358226371,-0.5423086995785797,17
8.971495249208202,-0.5793646814748344,17
8.981496916152693,-0.6167867814859375,17
8.991498583097183,-0.6855103110057925,17
9.001500250041675,-0.7207030903833308,17
9.011501916986164,-0.7364213517658568,17
9.021503583930656,-0.777401825204195,17
9.031505250875146,-0.7710912973063148,17
9.041506917819637,-0.7645719810641223,17
9.051508584764127,-0.7647185878729761,17
9.061510251708619,-0.7420110900848337,17
9.071511918653108,-0.7269185599362049,17
9.0815135855976,-0.6849387767795653,17
9.091515252542091,-0.622785089052781,17
9.101516919486581,-0.5579603614004833,17
9.111518586431073,-0.4876338143012782,17
9.121520253375563,-0.3965959997109223,17
9.131521920320054,-0.31455552609059373,17
9.141523587264544,-0.21912173994694378,17
9.151525254209036,-0.12339357817147358,17
9.161526921153525,-0.022180854759267225,17
9.171528588098017,0.06354444257997703,17
9.181530255042507,0.17715942655668965,17
9.191531921986998,0.2711435297865948,17
9.20153358893149,0.3624623863609937,17
9.21153525587598,0.422653704435686,17
9.221536922820471,0.5101771202261051,17
9.231538589764961,0.5821409552706324,17
9.241540256709452,0.6459697491551101,17
9.251541923653942,0.6904268355568737,17
9.261543590598434,0.7098870333407228,17
9.271545257542924,0.7549209316411235,17
9.281546924487415,0.7601956148034538,17
9.291548591431905,0.7852801590831048,17
9.301550258376396,0.769302506559086,17
9.311551925320888,0.7566693290570208,17
9.321553592265378,0.7274275657565208,17
9.33155525920987,0.6966543834923176,17
9.34155692615436,0.6538245184886601,17
9.35155859309885,0.6063831133892581,17
9.36156026004334,0.572510788513321,17
9.371561926987832,0.49491388797918434,17
9.381563593932322,0.46327608173030493,17
9.391565260876813,0.39806148811959596,17
9.401566927821303,0.3326898829060027,17
9.411568594765795,0.28050018585461184,17
9.421570261710285,0.2331437334990427,17
9.431571928654776,0.20034295213248973,17
9.441573595599268,0.15795058370805568,17
9.451575262543757,0.11692550599767589,17
9.461576929488249,0.06720068370499674,17
9.471578596432739,0.059859833313577325,17
9.48158026337723,0.042296312028112924,17
9.49158193032172,0.011806540600710949,17
9.501583597266212,0.009930268796549922,17
9.511585264210701,-0.005553611239956444,17
9.521586931155193,0.007428796311310992,17
9.531588598099683,0.011348192333678848,17
9.541590265044174,0.006161884561167914,17
9.551591931988666,-0.014053811430983035,17
9.561593598933156,0.012286400288490904,17
9.571595265877647,0.017638601419583608,17
9.581596932822137,-0.029424424882098888,17
9.591598599766629,-0.007113141980148051,17
9.601600266711118,-0.030103526756672654,17
9.61160193365561,-0.026034184844409704,17
9.6216036006001,-0.08122823616726915,17
9.631605267544591,-0.09756529540339187,17
9.641606934489081,-0.12462108717754698,17
9.651608601433573,-0.16637458508797187,17
9.661610268378064,-0.20812298099448168,17
9.671611935322554,-0.25215461486764307,17
9.681613602267046,-0.2908981024153586,17
9.691615269211535,-0.3504427666720209,17
9.701616936156027,-0.41571137255998847,17
9.711618603100517,-0.47776920575333004,17
9.721620270045008,-0.5164180167986367,17
9.731621936989498,-0.5916519531927051,17
9.74162360393399,-0.638758387181956,17
9.75162527087848,-0.684595818735929,17
9.761626937822971,-0.7049678899312866,17
9.77162860476746,-0.7290235494801628,17
9.781630271711952,-0.7626296773582044,17
9.791631938656444,-0.7750715079708763,17
9.801633605600934,-0.7875495875475906,17
9.811635272545425,-0.7566189173143889,17
9.821636939489915,-0.7489069406840233,17
9.831638606434407,-0.7263296204135103,17
9.841640273378896,-0.6909256852900498,17
9.851641940323388,-0.6561326025639963,17
9.861643607267878,-0.5840381523863125,17
9.87164527421237,-0.5100320240662687,17
9.881646941156859,-0.42909777409240396,17
9.89164860810135,-0.3392580423332499,17
9.901650275045842,-0.26517980921754986,17
9.911651941990332,-0.1506916250537357,17
9.921653608934824,-0.03925069526264496,17
9.931655275879313,0.04285761036405688,17
9.941656942823805,0.13359330414686307,17
9.951658609768295,0.24315632441502794,17
9.961660276712786,0.32589898370990283,17
9.971661943657276,0.3986142649381199,17
9.981663610601768,0.4850026885820634,17
9.991665277546257,0.5551667886367483,17
10.001666944490749,0.6374695801468361,17
10.01166861143524,0.6709015871507992,17
10.02167027837973,0.7276469243819218,17
10.031671945324222,0.747152535356719,17
10.041673612268712,0.770932438444407,17
10.051675279213203,0.7729927746857603,17
10.061676946157693,0.7522372863278799,17
10.071678613102184,0.7709894488573187,17
10.081680280046674,0.7448189137143679,17
10.091681946991166,0.7098512725710905,17
10.101683613935656,0.6626504649394576,17
10.111685280880147,0.6380205822635642,17
10.121686947824637,0.5736632400992997,17
10.131688614769129,0.5304056680853382,17
10.14169028171362,0.49000078139942227,17
10.15169194865811,0.4008273328242399,17
10.161693615602601,0.36781515260535114,17
10.171695282547091,0.33364436980181583,17
10.181696949491583,0.26069233448485074,17
10.191698616436073,0.21827994006618792,17
10.201700283380564,0.18949397780085772,17
10.211701950325054,0.13096423084415829,17
10.221703617269545,0.09483018130995538,17
10.231705284214035,0.05846719759117942,17
10.241706951158527,0.06181880055778463,17
10.251708618103018,0.04169410852480767,17
10.261710285047508,0.01400757139917684,17
10.271711951992,0.026892063612172667,17
10.28171361893649,0.016832807503614825,17
10.291715285880981,-0.011106278658142713,17
10.30171695282547,-0.014622933593803743,17
10.311718619769962,-0.0019059545030239205,17
10.321720286714452,0.009684965599945148,17
10.331721953658944,-0.003561210669027557,17
10.341723620603434,-0.009158117532389707,17
10.351725287547925,-0.009714419868901552,17
10.361726954492417,-0.025556665145788214,17
10.371728621436906,-0.02815373591893238,17
10.381730288381398,-0.04504893039081549,17
10.391731955325888,-0.09282195846605774,17
10.40173362227038,-0.10435964527368782,17
10.41173528921487,-0.1641028272921492,17
10.42173695615936,-0.19113811026940258,17
10.43173862310385,-0.25497862407392524,17
10.441740290048342,-0.2988290252088231,17
10.451741956992832,-0.32890094874423986,17
10.461743623937323,-0.3901075764341551,17
10.471745290881813,-0.4655127933799899,17
10.481746957826305,-0.4950131297856214,17
10.491748624770796,-0.5538490492113614,17
10.501750291715286,-0.6172416450489595,17
10.511751958659778,-0.661986004302198,17
10.521753625604267,-0.6932844136935105,17
10.531755292548759,-0.7235270700725861,17
10.541756959493249,-0.755206933417979,17
10.55175862643774,-0.7719715290042817,17
10.56176029338223,-0.7837054782090875,17
10.571761960326722,-0.7786200518488136,17
10.581763627271211,-0.7645850342782858,17
10.591765294215703,-0.7375164439931977,17
10.601766961160195,-0.7045880550466002,17
10.611768628104684,-0.6552899574534516,17
10.621770295049176,-0.6136696858014744,17
10.631771961993666,-0.5303803506910363,17
10.641773628938157,-0.4606703126992084,17
10.651775295882647,-0.3771580553273153,17
10.661776962827139,-0.29153476985581334,17
10.671778629771628,-0.1791775172829792,17
10.68178029671612,-0.10426783146311966,17
10.69178196366061,-0.010509878991561274,17
10.701783630605101,0.10286405499036269,17
10.711785297549593,0.18764931737173543,17
10.721786964494083,0.29146863834100206,17
10.731788631438574,0.38391393777613736,17
10.741790298383064,0.4757932256859927,17
10.751791965327556,0.5365531751957496,17
10.761793632272045,0.602806538242912,17
10.771795299216537,0.6635791212329951,17
10.781796966161027,0.6919888813045282,17
10.791798633105518,0.7387076437678822,17
10.801800300050008,0.7759071287568542,17
10.8118019669945,0.7803452652291529,17
10.82180363393899,0.7744014123364916,17
10.831805300883481,0.7771022125433952,17
10.841806967827972,0.7522176966640876,17
10.851808634772462,0.715738616538256,17
10.861810301716954,0.7003629938453347,17
10.871811968661444,0.6457155475764345,17
10.881813635605935,0.6234602786905322,17
10.891815302550425,0.5508009689304459,17
10.901816969494917,0.4976621262763351,17
10.911818636439406,0.44920372559521543,17
10.921820303383898,0.38983806070848415,17
10.931821970328388,0.3402535574836894,17
10.94182363727288,0.2847020358929765,17
10.95182530421737,0.2285816187457642,17
10.96182697116186,0.17209710252171026,17
10.971828638106352,0.1426371118893912,17
10.981830305050842,0.11300428397353754,17
10.991831971995333,0.06710403746760489,17
11.001833638939823,0.04076171780918279,17
11.011835305884315,0.028563810145851756,17
11.021836972828805,0.013621750073360856,17
11.031838639773296,0.01104407853897208,17
11.041840306717786,0.0055578887074822616,17
11.051841973662277,0.002887921233512574,17
11.061843640606769,-0.003908808378689583,17
11.071845307551259,0.027016437285966786,17
11.08184697449575,-0.0073608924014406905,17
11.09184864144024,-0.004921098104166908,17
11.101850308384732,-0.0036988819068098726,17
11.111851975329222,-0.004678272825969235,17
11.121853642273713,-0.00226317085323241,17
11.131855309218203,-0.04408600666799678,17
11.141856976162694,-0.055028153648802605,17
11.151858643107184,-0.07253414040887751,17
11.161860310051676,-0.105004448336206,17
11.171861976996166,-0.13098826236542693,17
11.181863643940657,-0.16088738860027552,17
11.191865310885149,-0.20862392382149686,17
11.201866977829638,-0.26448702712096805,17
11.21186864477413,-0.33623861954269946,17
11.22187031171862,-0.36211767251254223,17
11.231871978663111,-0.41659155137428455,17
11.241873645607601,-0.46162904498535046,17
11.251875312552093,-0.5386363214437249,17
11.261876979496583,-0.5874482032426737,17
11.271878646441074,-0.6294784025166064,17
11.281880313385564,-0.6831364835070248,17
11.291881980330055,-0.7276207764860121,17
11.301883647274547,-0.7473182019066937,17
11.311885314219037,-0.7670529017435124,17
11.321886981163528,-0.7602579456798146,17
11.331888648108018,-0.7706709457358017,17
11.34189031505251,-0.7762259169497447,17
11.351891981997,-0.7287556479211245,17
11.361893648941491,-0.7010440947604076,17
11.37189531588598,-0.6660373948677236,17
11.381896982830472,-0.6357616314137093,17
11.391898649774962,-0.5637354330082953,17
11.401900316719454,-0.4882027239409777,17
11.411901983663945,-0.4155898331608875,17
11.421903650608435,-0.3345261718981367,17
11.431905317552927,-0.23473961849502198,17
11.441906984497416,-0.12931239832401115,17
11.451908651441908,-0.032983992131516475,17
11.461910318386398,0.05921498137081921,17
11.47191198533089,0.17065851989487732,17
11.481913652275379,0.25947391507798645,17
11.49191531921987,0.3537146874983523,17
11.50191698616436,0.4402520920202616,17
11.511918653108852,0.5185268440411095,17
11.521920320053344,0.5986124518208018,17
11.531921986997833,0.6248439901211043,17
11.541923653942325,0.7022022623763687,17
11.551925320886815,0.7261388144262938,17
11.561926987831306,0.7812117071454119,17
11.571928654775796,0.7643063848916626,17
11.581930321720288,0.7840368876646172,17
11.591931988664777,0.7624275628971114,17
11.601933655609269,0.7377620439438514,17
11.611935322553759,0.7122363411439864,17
11.62193698949825,0.7011904760927874,17
11.63193865644274,0.6868213468964052,17
11.641940323387232,0.6217433578440924,17
11.651941990331723,0.5496089262087009,17
11.661943657276213,0.5270227453136878,17
11.671945324220705,0.44568369492000554,17
11.681946991165194,0.4075479214213589,17
11.691948658109686,0.33929645322392704,17
11.701950325054176,0.29255301673147016,17
11.711951991998667,0.24331264871607866,17
11.721953658943157,0.2121419294753345,17
11.731955325887649,0.15457235766430452,17
11.741956992832138,0.1209002979616958,17
11.75195865977663,0.10718251263931387,17
11.761960326721121,0.06413055433613599,17
11.771961993665611,0.024109635757477318,17
11.781963660610103,0.028310601810970292,17
11.791965327554593,0.014667206698010107,17
11.801966994499084,0.011218805393626616,17
11.811968661443574,-0.015387507378138224,17
11.821970328388065,0.009247130760146273,17
11.831971995332555,0.020032897186119326,17
11.841973662277047,0.021753863693527352,17
11.851975329221537,-0.007805506956486798,17
11.861976996166028,0.011062050932250107,17
11.87197866311052,0.004903432661258769,17
11.88198033005501,-0.013789348045201799,17
11.891981996999501,-0.03307955335164154,17
11.90198366394399,-0.038556337590113496,17
11.911985330888482,-0.061452785748377266,17
11.921986997832972,-0.09247570586667582,17
11.931988664777464,-0.12218692931692557,17
11.941990331721954,-0.16371151242497614,17
11.951991998666445,-0.19458166735938007,17
11.961993665610935,-0.24875076909252455,17
11.971995332555426,-0.3099112203281723,17
11.981996999499916,-0.3464097065715438,17
11.991998666444408,-0.42630789497474425,17
12.0020003333889,-0.4616767255327806,17
12.01200200033339,-0.5080026054391563,17
12.02200366727788,-0.5611986665939049,17
12.03200533422237,-0.6267655121917772,17
12.042007001166862,-0.6535077879995915,17
12.052008668111352,-0.7009324668014075,17
12.062010335055843,-0.7284391882072712,17
12.072012002000333,-0.7522881319450099,17
12.082013668944825,-0.7779964371839156,17
12.092015335889315,-0.7807043316761819,17
12.102017002833806,-0.7798321236462671,17
12.112018669778298,-0.7644776954036862,17
12.122020336722787,-0.7335771890235714,17
12.132022003667279,-0.6836827771302558,17
12.142023670611769,-0.6376082959537422,17
12.15202533755626,-0.5770421701695642,17
12.16202700450075,-0.5170084053813712,17
12.172028671445242,-0.43604292871813277,17
12.182030338389731,-0.3640321743271115,17
12.192032005334223,-0.2575799418894061,17
12.202033672278713,-0.16210456086278088,17
12.212035339223204,-0.07181931615671838,17
12.222037006167696,0.040938803673068604,17
12.232038673112186,0.11262564943547469,17
12.242040340056677,0.23045055891009225,17
12.252042007001167,0.31315233180545765,17
12.262043673945659,0.40224409097948205,17
12.272045340890148,0.4819793603606052,17
12.28204700783464,0.5559540807153425,17
12.29204867477913,0.6138064168325883,17
12.302050341723621,0.6701434125484608,17
12.312052008668111,0.7251612718153855,17
12.322053675612603,0.7465906433977095,17
12.332055342557092,0.7630703481725976,17
12.342057009501584,0.7780018443752237,17
12.352058676446076,0.762559242813009,17
12.362060343390565,0.7634170779061786,17
12.372062010335057,0.7380185117805449,17
12.382063677279547,0.7237899317046511,17
12.392065344224038,0.6593873276106382,17
12.402067011168528,0.6332874669216322,17
12.41206867811302,0.5825083761830909,17
12.42207034505751,0.5444985812284177,17
12.432072012002001,0.4780056169405295,17
12.44207367894649,0.43063630807121045,17
12.452075345890982,0.380786308874471,17
12.462077012835474,0.3276022150484842,17
12.472078679779964,0.2650854899804512,17
12.482080346724455,0.20682819141342812,17
12.492082013668945,0.1605581380907808,17
12.502083680613437,0.1501840192900326,17
12.512085347557926,0.08715744812980084,17
12.522087014502418,0.06166866645378958,17
12.532088681446908,0.03436283809555886,17
12.5420903483914,0.027626464710441032,17
12.552092015335889,0.008467222156981894,17
12.56209368228038,0.003946644384780483,17
12.572095349224872,-0.007246085707342059,17
12.582097016169362,-0.0049035918461862475,17
12.592098683113853,-0.005068871863012562,17
12.602100350058343,0.0017683892973798946,17
12.612102017002835,-0.004918475776033881,17
12.622103683947325,-0.008242803155351381,17
12.632105350891816,-0.004412030990383342,17
12.642107017836306,-0.01989419807531507,17
12.652108684780798,-0.02781659835778921,17
12.662110351725287,-0.03869644927804799,17
12.672112018669779,-0.06092696112108994,17
12.682113685614269,-0.06805921775125529,17
12.69211535255876,-0.1041992500335067,17
12.702117019503252,-0.15662356779048167,17
12.712118686447742,-0.1696940013684748,17
12.722120353392233,-0.22775150795524463,17
12.732122020336723,-0.2761032313901213,17
12.742123687281214,-0.33950559759720594,17
12.752125354225704,-0.39565806011599125,17
12.762127021170196,-0.42506619136881013,17
12.772128688114686,-0.48632339529458485,17
12.782130355059177,-0.5679251633627532,17
12.792132022003667,-0.5876745696675797,17
12.802133688948159,-0.6417788052120633,17
12.81213535589265,-0.6987753874100824,17
12.82213702283714,-0.7428384956024557,17
12.832138689781631,-0.76489218463528,17
12.842140356726121,-0.7717955318242529,17
12.852142023670613,-0.7828713791648462,17
12.862143690615103,-0.7788376577217953,17
12.872145357559594,-0.7669233367821946,17
12.882147024504084,-0.7171664775621374,17
12.892148691448575,-0.7141917205212209,17
12.902150358393065,-0.6718075074002544,17
12.912152025337557,-0.6020596863718174,17
12.922153692282048,-0.5538919707836322,17
12.932155359226538,-0.46425661210497476,17
12.94215702617103,-0.3849774225188551,17
12.95215869311552,-0.2955360722959543,17
12.962160360060011,-0.20003975818554467,17
12.9721620270045,-0.12003881165016728,17
12.982163693948992,0.004232802916467508,17
12.992165360893482,0.09609823831454915,17
13.002167027837974,0.1835308302592596,17
13.012168694782464,0.2754322100959994,17
13.022170361726955,0.3631102897683735,17
13.032172028671445,0.46054451182742856,17
13.042173695615936,0.5298051741882279,17
13.052175362560428,0.5835732217757948,17
13.062177029504918,0.6509109366564435,17
13.07217869644941,0.6943383708980501,17
13.0821803633939,0.7438555129189589,17
13.09218203033839,0.7535703332780506,17
13.10218369728288,0.7644637625698519,17
13.112185364227372,0.7901034793847734,17
13.122187031171862,0.7598003649958116,17
13.132188698116353,0.7554150309971168,17
13.142190365060843,0.7125335660433005,17
13.152192032005335,0.7002902868378671,17
13.162193698949826,0.6525434247060948,17
13.172195365894316,0.5934742567609271,17
13.182197032838808,0.5496359133380364,17
13.192198699783297,0.48769669749727634,17
13.202200366727789,0.44895925984193574,17
13.212202033672279,0.3938876104130829,17
13.22220370061677,0.3167667108528666,17
13.23220536756126,0.2677811363049374,17
13.242207034505752,0.2444397946494229,17
13.252208701450241,0.20113306084984328,17
13.262210368394733,0.15931757274000682,17
13.272212035339225,0.11894353311218743,17
13.282213702283714,0.08550600197974087,17
13.292215369228206,0.061789139169312106,17
13.302217036172696,0.04458688733370406,17
13.312218703117187,0.022973187347115717,17
13.322220370061677,0.01983251760717588,17
13.332222037006169,0.010454897674184891,17
13.342223703950658,0.0008515491740869768,17
13.35222537089515,-0.00938928468180054,17
13.36222703783964,7.019228717164494e-05,17
13.372228704784131,0.006549297179847452,17
13.382230371728621,-0.006649458787578314,17
13.392232038673113,0.0020856760966168593,17
13.402233705617604,-0.01064222317616562,17
13.412235372562094,-0.028056189075749756,17
13.422237039506586,-0.029938908329531336,17
13.432238706451075,-0.05776757301474506,17
13.442240373395567,-0.06570068949759575,17
13.452242040340057,-0.09456498295992408,17
13.462243707284548,-0.15189246460074524,17
13.472245374229038,-0.1777234713148891,17
13.48224704117353,-0.21339316170255718,17
13.49224870811802,-0.27259896662079447,17
13.502250375062511,-0.3029878022243425,17
13.512252042007002,-0.3606990486957127,17
13.522253708951492,-0.42956257921335333,17
13.532255375895984,-0.4756489913092682,17
13.542257042840474,-0.5339885566790066,17
13.552258709784965,-0.5858225896674024,17
13.562260376729455,-0.6253075756785466,17
13.572262043673947,-0.6749253055403522,17
13.582263710618436,-0.6969017890987494,17
13.592265377562928,-0.7563548700286649,17
13.602267044507418,-0.7631299541469967,17
13.61226871145191,-0.7814393872420199,17
13.6222703783964,-0.7860259684810231,17
13.63227204534089,-0.7604878814400264,17
13.642273712285382,-0.7385613430295014,17
13.652275379229872,-0.7242970079625521,17
13.662277046174363,-0.6856960138156052,17
13.672278713118853,-0.6240167340911542,17
13.682280380063345,-0.556875402795112,17
13.692282047007835,-0.5001773282374592,17
13.702283713952326,-0.43783313631686155,17
13.712285380896816,-0.3290499584198691,17
13.722287047841307,-0.23665532971744402,17
13.732288714785797,-0.15281734609977685,17
13.742290381730289,-0.042906929217522316,17
13.75229204867478,0.05791302288182418,17
13.76229371561927,0.15610215895814022,17
13.772295382563762,0.2505311834421778,17
13.782297049508252,0.3438600286917325,17
13.792298716452743,0.4307044267851164,17
13.802300383397233,0.5079633781655276,17
13.812302050341724,0.5637631881690827,17
13.822303717286214,0.6134523573294567,17
13.832305384230706,0.6935979844839941,17
13.842307051175196,0.7342847521148628,17
13.852308718119687,0.7556000639470493,17
13.862310385064179,0.7559814634995139,17
13.872312052008668,0.7678943081825937,17
13.88231371895316,0.7718297313882817,17
13.89231538589765,0.7758242796583172,17
13.902317052842141,0.7478143690899343,17
13.912318719786631,0.70024658851241,17
13.922320386731123,0.6728815977321568,17
13.932322053675612,0.6300402057236197,17
13.942323720620104,0.5658724265686642,17
13.952325387564594,0.5202551777457304,17
13.962327054509085,0.4837197893713588,17
13.972328721453577,0.4044641005356326,17
13.982330388398067,0.35690697284084344,17
13.992332055342558,0.29562760224266205,17
14.002333722287048,0.25029229524388014,17
14.01233538923154,0.2062933407251655,17
14.02233705617603,0.1577187792654823,17
14.032338723120521,0.13634567322005034,17
14.04234039006501,0.10005833012033866,17
14.052342057009502,0.06786349950669623,17
14.062343723953992,0.03404131554943802,17
14.072345390898484,0.031982125976576306,17
14.082347057842973,0.005859527962191599,17
14.092348724787465,-0.008817118943548231,17
14.102350391731957,-0.0033389203387944417,17
14.112352058676446,0.007744435775399541,17
14.122353725620938,-0.0013330354883644424,17
14.132355392565428,0.013951013332637485,17
14.14235705950992,-0.008369240449225405,17
14.152358726454409,0.009907691806784032,17
14.1623603933989,-0.026029736443116916,17
14.17236206034339,-0.01205777970961749,17
14.182363727287882,-0.05949952808820532,17
14.192365394232372,-0.04499733012680909,17
14.202367061176863,-0.06060504738190655,17
14.212368728121355,-0.08240814925179372,17
14.222370395065845,-0.11221972473138991,17
14.232372062010336,-0.15208848179795087,17
14.242373728954826,-0.19798011951052413,17
14.252375395899318,-0.2516000646172159,17
14.262377062843807,-0.28619767431744675,17
14.272378729788299,-0.3460558501870071,17
14.282380396732789,-0.400071463594963,17
14.29238206367728,-0.44638298128453247,17
14.30238373062177,-0.5141790213154622,17
14.312385397566262,-0.5814674813713796,17
14.322387064510753,-0.6189609097350134,17
14.332388731455243,-0.6629853611363784,17
14.342390398399735,-0.7143686991885955,17
14.352392065344224,-0.7145111251026126,17
14.362393732288716,-0.7627450076252558,17
14.372395399233206,-0.7645021127090715,17
14.382397066177697,-0.7770950034848686,17
14.392398733122187,-0.772020065398746,17
14.402400400066679,-0.7670035361639729,17
14.412402067011168,-0.7255323642740389,17
14.42240373395566,-0.7062885903124613,17
14.432405400900151,-0.65128092821211,17
14.442407067844641,-0.583289905381894,17
14.452408734789133,-0.5236429590375851,17
14.462410401733623,-0.42492378433094763,17
14.472412068678114,-0.35019902485380394,17
14.482413735622604,-0.24750267668249049,17
14.492415402567095,-0.18639799587442207,17
14.502417069511585,-0.0853172883837954,17
14.512418736456077,0.050358925191127446,17
14.522420403400567,0.12892148607439238,17
14.532422070345058,0.21053392237074872,17
14.542423737289548,0.29138916786510294,17
14.55242540423404,0.39945245240972105,17
14.562427071178531,0.47588769842440265,17
14.57242873812302,0.5496359633405367,17
14.582430405067512,0.6221218968726717,17
14.592432072012002,0.6687107647493624,17
14.602433738956494,0.7226512150145153,17
14.612435405900984,0.7552152797042169,17
14.622437072845475,0.7706970987620736,17
14.632438739789965,0.7643526280561862,17
14.642440406734456,0.7905120053023116,17
14.652442073678946,0.7811246532693398,17
14.662443740623438,0.7418969857299595,17
14.67244540756793,0.6958729126438642,17
14.68244707451242,0.6788007625779517,17
14.69244874145691,0.6316851006931553,17
14.7024504084014,0.5897140335878269,17
14.712452075345892,0.5362273149401822,17
14.722453742290382,0.485576795061271,17
14.732455409234873,0.43985807727554543,17
14.742457076179363,0.3789113855960552,17
14.752458743123855,0.32096236798393085,17
14.762460410068345,0.26936662199461475,17
14.772462077012836,0.2161310529760327,17
14.782463743957328,0.18776231013824904,17
14.792465410901817,0.12146132915002097,17
14.802467077846309,0.11206653087491952,17
14.812468744790799,0.08564896445162695,17
14.82247041173529,0.0372562601221625,17
14.83247207867978,0.03190921909204032,17
14.842473745624272,0.010834116162777557,17
14.852475412568761,-0.010944042466073101,17
14.862477079513253,0.010482022838176504,17
14.872478746457743,-0.010488128372181198,17
14.882480413402234,-0.01193610301748119,17
14.892482080346724,0.009261226981261481,17
14.902483747291216,0.0020934800340087316,17
14.912485414235707,-0.010539510286174628,17
14.922487081180197,-0.029892577257682726,17
14.932488748124689,-0.01855801029400463,17
14.942490415069178,-0.019194214213986784,17
14.95249208201367,-0.03781286058863868,17
14.96249374895816,-0.046094790427002166,17
14.972495415902651,-0.08059944942749514,17
14.982497082847141,-0.10727424219074637,17
14.992498749791633,-0.15031368000468562,17
15.002500416736122,-0.18762858071685126,17
15.012502083680614,-0.2342317032215637,17
15.022503750625106,-0.2669578988119411,17
15.032505417569595,-0.34891797170019123,17
15.042507084514087,-0.3900833008373141,17
15.052508751458577,-0.43815957503725755,17
15.062510418403068,-0.49836476401107827,17
15.072512085347558,-0.5413893432419884,17
15.08251375229205,-0.6097480650515966,17
15.09251541923654,-0.6460115004037084,17
15.102517086181031,-0.6906026022942473,17
15.11251875312552,-0.7208312082978102,17
15.122520420070012,-0.7489825908646646,17
15.132522087014504,-0.7629558582499971,17
15.142523753958994,-0.7876179949677719,17
15.152525420903485,-0.7800078559475233,17
15.162527087847975,-0.7512939381754713,17
15.172528754792467,-0.7447573840549986,17
15.182530421736956,-0.70277467238837,17
15.192532088681448,-0.6426314638963059,17
15.202533755625938,-0.6010703093234157,17
15.21253542257043,-0.5509395924601144,17
15.222537089514919,-0.46951879490219905,17
15.23253875645941,-0.39024054733296193,17
15.2425404234039,-0.2889890367877045,17
15.252542090348392,-0.19351226794341403,17
15.262543757292883,-0.10588562990213703,17
15.272545424237373,-0.014697119950367918,17
15.282547091181865,0.08043902772897064,17
15.292548758126355,0.1840746480645943,17
15.302550425070846,0.2791621608663016,17
15.312552092015336,0.35775287706871883,17
15.322553758959828,0.4456792820656301,17
15.332555425904317,0.5173744770632636,17
15.342557092848809,0.5860104029769422,17
15.352558759793299,0.6577824730168703,17
15.36256042673779,0.7032190468359056,17
15.372562093682282,0.7257773347819534,17
15.382563760626772,0.7547215847501527,17
15.392565427571263,0.7745127258374336,17
15.402567094515753,0.7815366501581221,17
15.412568761460244,0.7831060879522466,17
15.422570428404734,0.7596506404244592,17
15.432572095349226,0.7367918339571397,17
15.442573762293716,0.6928661183028849,17
15.452575429238207,0.6552109233340194,17
15.462577096182697,0.6119094981846673,17
15.472578763127188,0.559841715246251,17
15.48258043007168,0.5180710178100736,17
15.49258209701617,0.45113859908941994,17
15.502583763960661,0.39406630968992795,17
15.512585430905151,0.33656084806151143,17
15.522587097849643,0.288198760842358,17
15.532588764794133,0.23865976114755708,17
15.542590431738624,0.19043816343666276,17
15.552592098683114,0.13321095737822347,17
15.562593765627605,0.1219827908800211,17
15.572595432572095,0.08863618454534321,17
15.582597099516587,0.05231301889538008,17
15.592598766461077,0.03509399726088185,17
15.602600433405568,0.03299139904770138,17
15.61260210035006,0.03168613876607476,17
15.62260376729455,0.0011232467270986249,17
15.632605434239041,0.011116429398844113,17
15.64260710118353,-0.0015413305216851131,17
15.652608768128022,-0.0059593518035683055,17
15.662610435072512,-0.00023219434090687225,17
15.672612102017004,0.009977630818434427,17
15.682613768961494,0.009533572965895885,17
15.692615435905985,-0.003794167015155633,17
15.702617102850475,-0.028535665540401062,17
15.712618769794966,-0.026754871351081268,17
15.722620436739458,-0.05114264425864948,17
15.732622103683948,-0.06230793238724119,17
15.74262377062844,-0.09796137349934504,17
15.752625437572929,-0.12536804842176966,17
15.76262710451742,-0.15632848253163387,17
15.77262877146191,-0.21820093823715853,17
15.782630438406402,-0.23964910013019397,17
15.792632105350892,-0.3321020743513963,17
15.802633772295383,-0.3550307156022418,17
15.812635439239873,-0.4140771547669796,17
15.822637106184365,-0.4838871570165715,17
15.832638773128856,-0.5402389363112073,17
15.842640440073346,-0.5811506140583707,17
15.852642107017838,-0.6313310587196872,17
15.862643773962327,-0.6919166812499081,17
15.872645440906819,-0.6963182356333035,17
15.882647107851309,-0.7438206009530797,17
15.8926487747958,-0.7582915750206142,17
15.90265044174029,-0.7616554695074433,17
15.912652108684782,-0.7825142687434874,17
15.922653775629271,-0.7681540875059233,17
15.932655442573763,-0.7505400771251867,17
15.942657109518253,-0.7106147516713719,17
15.952658776462744,-0.6838096068266758,17
15.962660443407236,-0.6163219213284014,17
15.972662110351726,-0.5699689663292317,17
15.982663777296217,-0.4855368584072648,17
15.992665444240707,-0.4191835756141057,17
16.002667111185197,-0.32839635495060987,17
16.01266877812969,-0.2512867636708635,17
16.02267044507418,-0.15119268431929753,17
16.03267211201867,-0.0387660302962577,17
16.04267377896316,0.05858641007460487,17
16.052675445907653,0.13239999012217946,17
16.062677112852143,0.24786285172400957,17
16.072678779796632,0.3346347729624396,17
16.082680446741126,0.41224006001175584,17
16.092682113685616,0.5111102643457377,17
16.102683780630105,0.5722790362408906,17
16.112685447574595,0.6304950738877653,17
16.12268711451909,0.6823187645540576,17
16.132688781463578,0.7240812313855011,17
16.142690448408068,0.7431199038385491,17
16.152692115352558,0.7798855874879475,17
16.16269378229705,0.7795124063028495,17
16.17269544924154,0.7750077230327236,17
16.18269711618603,0.7775964099384455,17
16.192698783130524,0.7234894688093751,17
16.202700450075014,0.7224621514605063,17
16.212702117019504,0.6725100981610689,17
16.222703783963993,0.6249648983877754,17
16.232705450908487,0.5559102063198352,17
16.242707117852976,0.5488538417985106,17
16.252708784797466,0.4748768185073386,17
16.262710451741956,0.40794707698981686,17
16.27271211868645,0.3575887383662024,17
16.28271378563094,0.30721978916584053,17
16.29271545257543,0.2513228867247095,17
16.302717119519922,0.21979117942324633,17
16.312718786464412,0.17468809915094696,17
16.322720453408902,0.13258763817994493,17
16.33272212035339,0.09020819999869403,17
16.342723787297885,0.07073737131196446,17
16.352725454242375,0.04059028253182013,17
16.362727121186865,0.010379200848528513,17
16.372728788131354,-0.010253303780854924,17
16.382730455075848,0.016439304169998677,17
16.392732122020337,-0.009882447575291714,17
16.402733788964827,0.021452932166833687,17
16.41273545590932,-0.004553107791638064,17
16.42273712285381,-0.023138749362634742,17
16.4327387897983,-0.008938827004374752,17
16.44274045674279,-0.007353794407702181,17
16.452742123687283,-0.0028785821902108347,17
16.462743790631773,-0.0005349621493493297,17
16.472745457576263,-0.02189788386112731,17
16.482747124520753,-0.041687160806211765,17
16.492748791465246,-0.04356038994241326,17
16.502750458409736,-0.08864621104714827,17
16.512752125354226,-0.11330583826231436,17
16.522753792298715,-0.15774914117328243,17
16.53275545924321,-0.17805732383673747,17
16.5427571261877,-0.23465072303460296,17
16.55275879313219,-0.30393346936031146,17
16.56276046007668,-0.35465477859648464,17
16.57276212702117,-0.4152988956365864,17
16.58276379396566,-0.4572023574835219,17
16.59276546091015,-0.51808654101403,17
16.602767127854644,-0.5536791632856539,17
16.612768794799134,-0.6096749011131473,17
16.622770461743624,-0.6489098579217439,17
16.632772128688114,-0.6963221954727205,17
16.642773795632607,-0.7233372031151531,17
16.652775462577097,-0.7701708555314316,17
16.662777129521587,-0.7758166093198857,17
16.67277879646608,-0.7843166667986201,17
16.68278046341057,-0.7782728705236042,17
16.69278213035506,-0.7686717795359119,17
16.70278379729955,-0.7288352719522597,17
16.712785464244043,-0.6969365412764442,17
16.722787131188532,-0.6407331913563888,17
16.732788798133022,-0.5862263622566287,17
16.742790465077512,-0.5309566394368337,17
16.752792132022005,-0.4473366976863307,17
16.762793798966495,-0.3654557507493628,17
16.772795465910985,-0.27969636961273514,17
16.782797132855478,-0.17629524188100562,17
16.792798799799968,-0.08905840008201338,17
16.802800466744458,0.009367391691111742,17
16.812802133688947,0.12155162834128207,17
16.82280380063344,0.24147932475154005,17
16.83280546757793,0.28718524255481737,17
16.84280713452242,0.405986743551865,17
16.85280880146691,0.47244187052275577,17
16.862810468411404,0.5487899310365804,17
16.872812135355893,0.6033496576120249,17
16.882813802300383,0.6591432954228471,17
16.892815469244876,0.7110781993515136,17
16.902817136189366,0.7487814962822642,17
16.912818803133856,0.7571994739461723,17
16.922820470078346,0.766506801720137,17
16.93282213702284,0.7686516843632221,17
16.94282380396733,0.7746622754907353,17
16.95282547091182,0.7451285332589919,17
16.96282713785631,0.72688024703554,17
16.972828804800802,0.6858839763071961,17
16.98283047174529,0.6536845501283963,17
16.99283213868978,0.5917721531511766,17
17.002833805634275,0.5494635586367802,17
17.012835472578764,0.4947062640539306,17
17.022837139523254,0.436909151661187,17
17.032838806467744,0.37399378752959667,17
17.042840473412237,0.31119404747836044,17
17.052842140356727,0.28686998432334176,17
17.062843807301217,0.21995834080101315,17
17.072845474245707,0.19671019091158445,17
17.0828471411902,0.14019283680649455,17
17.09284880813469,0.10435971771089182,17
17.10285047507918,0.07590499892391846,17
17.112852142023673,0.05119944409139795,17
17.122853808968163,0.034910148853006424,17
17.132855475912653,0.016953045698016648,17
17.142857142857142,0.023567944492715473,17
17.152858809801636,0.002431476424880729,17
17.162860476746125,0.021497464866110982,17
17.172862143690615,0.006479346903600002,17
17.182863810635105,-0.019829543273036956,17
17.1928654775796,0.015502421077758004,17
17.202867144524088,0.010766732704002555,17
17.212868811468578,-0.009391895383466988,17
17.222870478413068,-0.023083342667390903,17
17.23287214535756,0.0031601205425627055,17
17.24287381230205,-0.029439906128419964,17
17.25287547924654,-0.046251796991802215,17
17.262877146191034,-0.08088659884232002,17
17.272878813135524,-0.08548623584559002,17
17.282880480080014,-0.14216021218492775,17
17.292882147024503,-0.17578843965311755,17
17.302883813968997,-0.2143830676185306,17
17.312885480913486,-0.27085128421161403,17
17.322887147857976,-0.3311034420194217,17
17.332888814802466,-0.3850101819053448,17
17.34289048174696,-0.44762469678692585,17
17.35289214869145,-0.4765576203266979,17
17.36289381563594,-0.5486070228793513,17
17.372895482580432,-0.5980967624929234,17
17.382897149524922,-0.6581968907641831,17
17.392898816469412,-0.6981474176096366,17
17.4029004834139,-0.7164303093937381,17
17.412902150358395,-0.7355347062954979,17
17.422903817302885,-0.7772949535237428,17
17.432905484247375,-0.7888949756124017,17
17.442907151191864,-0.772712306261354,17
17.452908818136358,-0.7813780837703742,17
17.462910485080847,-0.7564867562496173,17
17.472912152025337,-0.7161082325984662,17
17.48291381896983,-0.6731757989735531,17
17.49291548591432,-0.6072155882680482,17
17.50291715285881,-0.5461496277664504,17
17.5129188198033,-0.46664926395724393,17
17.522920486747793,-0.39537349746780504,17
17.532922153692283,-0.30889748749450446,17
17.542923820636773,-0.22753274462782835,17
17.552925487581263,-0.11984200768708836,17
17.562927154525756,-0.006273696320789933,17
17.572928821470246,0.07272555890097143,17
17.582930488414735,0.17945933917433468,17
17.59293215535923,0.2606443663337561,17
17.60293382230372,0.36916198045881715,17
17.61293548924821,0.4377382924022974,17
17.622937156192698,0.52488786925418,17
17.63293882313719,0.5947556818582409,17
17.64294049008168,0.6363529220390926,17
17.65294215702617,0.7036560750403955,17
17.66294382397066,0.7326782727023538,17
17.672945490915154,0.7620104778202648,17
17.682947157859644,0.7720767624868125,17
17.692948824804134,0.7843215783687294,17
17.702950491748627,0.7598555257663931,17
17.712952158693117,0.7599877751259037,17
17.722953825637607,0.7287604075955515,17
17.732955492582096,0.6967303244447235,17
17.74295715952659,0.668675917982502,17
17.75295882647108,0.6065260032464663,17
17.76296049341557,0.5746874279231737,17
17.77296216036006,0.5124701804194829,17
17.782963827304552,0.4517902956464955,17
17.792965494249042,0.40162156689869827,17
17.802967161193532,0.36105994100258143,17
17.812968828138025,0.2803696745396547,17
17.822970495082515,0.2239665959510795,17
17.832972162027005,0.20069516612358615,17
17.842973828971495,0.143852892587212,17
17.852975495915988,0.13813237314130303,17
17.862977162860478,0.07745126010363075,17
17.872978829804968,0.05488380377218699,17
17.882980496749457,0.052477856872100465,17
17.89298216369395,0.03641929974302398,17
17.90298383063844,0.01576761244409816,17
17.91298549758293,0.0005372344520753651,17
17.92298716452742,-0.0008101642555493867,17
17.932988831471913,0.0028645605618097124,17
17.942990498416403,0.005318110664255261,17
17.952992165360893,0.005553658729284622,17
17.962993832305386,-0.0025423975276232733,17
17.972995499249876,0.011605909311084446,17
17.982997166194366,-0.016705098092984975,17
17.992998833138856,-0.0354748791756275,17
18.00300050008335,-0.013990911661907864,17
18.01300216702784,-0.04344214982910617,17
18.02300383397233,-0.08745891147417101,17
18.03300550091682,-0.09623381837258113,17
18.04300716786131,-0.11207403739230279,17
18.0530088348058,-0.17102696140760346,17
18.06301050175029,-0.20284558752583842,17
18.073012168694785,-0.24637339932270277,17
18.083013835639274,-0.296581786279316,17
18.093015502583764,-0.3790693776119245,17
18.103017169528254,-0.40598090514737445,17
18.113018836472747,-0.46250186666899135,17
18.123020503417237,-0.5239682398930811,17
18.133022170361727,-0.5779919104116931,17
18.143023837306217,-0.6187846162773634,17
18.15302550425071,-0.6814354886075837,17
18.1630271711952,-0.7032934532728864,17
18.17302883813969,-0.7489249319319415,17
18.183030505084183,-0.759324471433962,17
18.193032172028673,-0.7763598578673787,17
18.203033838973163,-0.7888170480154545,17
18.213035505917652,-0.7788793847964485,17
18.223037172862146,-0.758883389207528,17
18.233038839806635,-0.7352403929308681,17
18.243040506751125,-0.6864463768059352,17
18.253042173695615,-0.6399790603169851,17
18.26304384064011,-0.567597688384745,17
18.273045507584598,-0.5192518064778309,17
18.283047174529088,-0.4241651113459161,17
18.29304884147358,-0.3290998925287682,17
18.30305050841807,-0.23079331506431153,17
18.31305217536256,-0.13465857535552805,17
18.32305384230705,-0.05600424063162918,17
18.333055509251544,0.04611083470979353,17
18.343057176196034,0.14472434201188486,17
18.353058843140523,0.23410636188656933,17
18.363060510085013,0.3300106636588247,17
18.373062177029507,0.4243451571320357,17
18.383063843973996,0.491021231200018,17
18.393065510918486,0.5727605932951104,17
18.40306717786298,0.6314190963922215,17
18.41306884480747,0.6936471554244444,17
18.42307051175196,0.7032393308696271,17
18.43307217869645,0.7387861436320694,17
18.443073845640942,0.7658327700073965,17
18.453075512585432,0.773824318698505,17
18.463077179529922,0.7828789465830205,17
18.47307884647441,0.7579507628827953,17
18.483080513418905,0.7338712381482917,17
18.493082180363395,0.7074336686768128,17
18.503083847307884,0.6866558930080658,17
18.513085514252378,0.626489827972573,17
18.523087181196868,0.5662911058434428,17
18.533088848141357,0.5236153343432532,17
18.543090515085847,0.47491402779108116,17
18.55309218203034,0.43866633651950543,17
18.56309384897483,0.36298831151652566,17
18.57309551591932,0.30361191167983853,17
18.58309718286381,0.2557211926246705,17
18.593098849808303,0.21450381757545262,17
18.603100516752793,0.16426693569429088,17
18.613102183697283,0.11205014670650865,17
18.623103850641776,0.0879885277302607,17
18.633105517586266,0.05979441873193628,17
18.643107184530756,0.034793791133403494,17
18.653108851475245,0.020269216385160146,17
18.66311051841974,0.006850019547828684,17
18.67311218536423,0.023906238937590966,17
18.68311385230872,0.010646205697023497,17
18.693115519253208,0.011765417389291249,17
18.7031171861977,-0.003876983303980705,17
18.71311885314219,-0.01833473683556867,17
18.72312052008668,0.003318885864064162,17
18.73312218703117,-0.007093980536107515,17
18.743123853975664,-0.015597248736614132,17
18.753125520920154,-0.030506022843256576,17
18.763127187864644,-0.020149579889180657,17
18.773128854809137,-0.03154028558048318,17
18.783130521753627,-0.04970700109925291,17
18.793132188698117,-0.08607528492636998,17
18.803133855642606,-0.1275647490965097,17
18.8131355225871,-0.14392143015835546,17
18.82313718953159,-0.19160933613544182,17
18.83313885647608,-0.2673527033990702,17
18.84314052342057,-0.289519146214112,17
18.853142190365062,-0.3527421228508257,17
18.863143857309552,-0.4023787077048865,17
18.873145524254042,-0.45815512001953856,17
18.883147191198535,-0.49620889109758337,17
18.893148858143025,-0.5715970694529672,17
18.903150525087515,-0.5918891827577513,17
18.913152192032005,-0.6284071799507334,17
18.923153858976498,-0.6747431095575702,17
18.933155525920988,-0.7327797659689648,17
18.943157192865478,-0.7544776575833558,17
18.953158859809967,-0.7822256793600316,17
18.96316052675446,-0.7950934124574731,17
18.97316219369895,-0.7692547156665702,17
18.98316386064344,-0.7505832386500981,17
18.993165527587934,-0.7220667263419791,17
19.003167194532423,-0.6963335190880355,17
19.013168861476913,-0.648168646243058,17
19.023170528421403,-0.6100606896168285,17
19.033172195365896,-0.5311806359891521,17
19.043173862310386,-0.4560819522152371,17
19.053175529254876,-0.3653917059743681,17
19.063177196199366,-0.26429462318178426,17
19.07317886314386,-0.19263861788474237,17
19.08318053008835,-0.09790466604682735,17
19.09318219703284,0.008892459475036965,17
19.103183863977332,0.11761304139786993,17
19.11318553092182,0.21756586091191357,17
19.12318719786631,0.3056047740909372,17
19.1331888648108,0.3861274729421037,17
19.143190531755295,0.4773341672643474,17
19.153192198699784,0.5466962337286753,17
19.163193865644274,0.5991676631676948,17
19.173195532588764,0.6733920308701271,17
19.183197199533257,0.7078260450727906,17
19.193198866477747,0.7465587968802382,17
19.203200533422237,0.7727551452266127,17
19.21320220036673,0.7802422276864395,17
19.22320386731122,0.7985663786556427,17
19.23320553425571,0.7562545671462566,17
19.2432072012002,0.749674182408701,17
19.253208868144693,0.7301965025035388,17
19.263210535089183,0.6722137541499059,17
19.273212202033672,0.640665593098656,17
19.283213868978162,0.6016814610599625,17
19.293215535922656,0.557368412718714,17
19.303217202867145,0.4977678413196384,17
19.313218869811635,0.42808131959168716,17
19.32322053675613,0.3831841753211839,17
19.33322220370062,0.3341355244028037,17
19.343223870645108,0.28233078472646217,17
19.353225537589598,0.2376102602680282,17
19.36322720453409,0.17061195915259067,17
19.37322887147858,0.13015169653527903,17
19.38323053842307,0.09691770120828042,17
19.39323220536756,0.07793859281076918,17
19.403233872312054,0.0647884684126755,17
19.413235539256544,0.016112085039821616,17
19.423237206201033,0.006555097213318125,17
19.433238873145523,0.025807636840002042,17
19.443240540090017,0.025667088406235355,17
19.453242207034506,-0.00769059021549418,17
19.463243873978996,0.017425919538944304,17
19.47324554092349,0.007836486030509007,17
19.48324720786798,0.0015920493132123706,17
19.49324887481247,0.0012785235146154567,17
19.50325054175696,0.004717910206657705,17
19.513252208701452,-0.02019629776258936,17
19.523253875645942,-0.010972560404904314,17
19.53325554259043,-0.035116545449918206,17
19.54325720953492,-0.04775580826361572,17
19.553258876479415,-0.07821841119185136,17
19.563260543423905,-0.13076225003521535,17
19.573262210368394,-0.14260505503104917,17
19.583263877312888,-0.1851378158371246,17
19.593265544257378,-0.22136653279710175,17
19.603267211201867,-0.27234001614773573,17
19.613268878146357,-0.32930352081012865,17
19.62327054509085,-0.3730901074670528,17
19.63327221203534,-0.440660898180471,17
19.64327387897983,-0.4863481921013882,17
19.65327554592432,-0.5447715171108859,17
19.663277212868813,-0.6122284981305804,17
19.673278879813303,-0.6530669061222768,17
19.683280546757793,-0.684820387216626,17
19.693282213702286,-0.7154599434523929,17
19.703283880646776,-0.7564395754680547,17
19.713285547591266,-0.7727368963109694,17
19.723287214535755,-0.774031723447027,17
19.73328888148025,-0.7903872410163535,17
19.74329054842474,-0.7875130685107676,17
19.75329221536923,-0.7549502389751204,17
19.763293882313718,-0.6996676388857593,17
19.77329554925821,-0.65060707037972,17
19.7832972162027,-0.623227017517483,17
19.79329888314719,-0.5565116314364669,17
19.803300550091684,-0.47153652810761737,17
19.813302217036174,-0.4045971612118093,17
19.823303883980664,-0.3142449607205383,17
19.833305550925154,-0.2238338448580093,17
19.843307217869647,-0.11366987488738767,17
19.853308884814137,-0.02418600303932679,17
19.863310551758627,0.0894447124195278,17
19.873312218703116,0.17232602773454117,17
19.88331388564761,0.2666492404429431,17
19.8933155525921,0.3674192842218162,17
19.90331721953659,0.4371671309589968,17
19.913318886481083,0.5326877368531038,17
19.923320553425572,0.5634803892530954,17
19.933322220370062,0.6517737996382235,17
19.943323887314552,0.7019031206335435,17
19.953325554259045,0.732650259499778,17
19.963327221203535,0.7550782267788172,17
19.973328888148025,0.7742031969008534,17
19.983330555092515,0.8017160586856773,17
19.993332222037008,0.762991375072507,17
20.003333888981498,0.7464541831170812,17
20.013335555925988,0.730145950657479,17
20.02333722287048,0.7123777507502068,17
20.03333888981497,0.6790975906963063,17
20.04334055675946,0.6274357551476909,17
20.05334222370395,0.5766720021534915,17
20.063343890648444,0.5059159154696524,17
20.073345557592933,0.46690966879930107,17
20.083347224537423,0.40728596595990757,17
20.093348891481913,0.3542531214720117,17
20.103350558426406,0.3035378450347108,17
20.113352225370896,0.2505340384741488,17
20.123353892315386,0.1957178911498007,17
20.133355559259876,0.15255609090110148,17
20.14335722620437,0.1134886639793542,17
20.15335889314886,0.0708781178534746,17
20.16336056009335,0.058251918261184664,17
20.173362227037842,0.03651724147444271,17
20.18336389398233,0.016964731587992093,17
20.19336556092682,0.00980074524612317,17
20.20336722787131,0.006101155270774743,17
20.213368894815805,0.018309349424529293,17
20.223370561760294,-0.014621293323102505,17
20.233372228704784,0.009338937186015363,17
20.243373895649274,0.024302788739649115,17
20.253375562593767,-0.004398187168952494,17
20.263377229538257,-0.0046816206528430306,17
20.273378896482747,-0.008479493216686243,17
20.28338056342724,-0.01979169805273866,17
20.29338223037173,-0.028191784699047633,17
20.30338389731622,-0.04601577341301354,17
20.31338556426071,-0.06097225099400228,17
20.323387231205203,-0.08809824684763831,17
20.333388898149693,-0.11110184181804268,17
20.343390565094182,-0.15002494480921863,17
20.353392232038672,-0.22676994286991226,17
20.363393898983166,-0.24004870086798252,17
20.373395565927655,-0.30840207799668934,17
20.383397232872145,-0.364220209231639,17
20.39339889981664,-0.41498869731013455,17
20.40340056676113,-0.4704880437912913,17
20.413402233705618,-0.5395751605578605,17
20.423403900650108,-0.5917903983092798,17
20.4334055675946,-0.6296756212741046,17
20.44340723453909,-0.6662091123339602,17
20.45340890148358,-0.7165644373487288,17
20.46341056842807,-0.7472048440471095,17
20.473412235372564,-0.7529796568486999,17
20.483413902317054,-0.762862600115169,17
20.493415569261543,-0.7849401249746404,17
20.503417236206037,-0.7685002896743416,17
20.513418903150527,-0.7616127696918487,17
20.523420570095016,-0.7312689687755525,17
20.533422237039506,-0.6918879896606263,17
20.543423903984,-0.6394839694552665,17
20.55342557092849,-0.561796805671008,17
20.56342723787298,-0.4994150946903248,17
20.57342890481747,-0.4254398611588235,17
20.583430571761962,-0.3520746687373521,17
20.593432238706452,-0.2516869117809402,17
20.60343390565094,-0.14675564896539126,17
20.613435572595435,-0.05354063569744372,17
20.623437239539925,0.048394201144819904,17
20.633438906484415,0.14491326033934482,17
20.643440573428904,0.23316898858464918,17
20.653442240373398,0.31638541634137507,17
20.663443907317887,0.41000610175839314,17
20.673445574262377,0.5018856572866696,17
20.683447241206867,0.5680438282843397,17
20.69344890815136,0.6156953288420504,17
20.70345057509585,0.6799807099019942,17
20.71345224204034,0.7305071537285661,17
20.723453908984833,0.7462156852904441,17
20.733455575929323,0.7721346009620456,17
20.743457242873813,0.776768148260738,17
20.753458909818303,0.7684659867390549,17
20.763460576762796,0.7585827333845149,17
20.773462243707286,0.7477696304593966,17
20.783463910651776,0.7221377237588721,17
20.793465577596265,0.6907529388112751,17
20.80346724454076,0.6180950742530058,17
20.81346891148525,0.6008995977133644,17
20.82347057842974,0.5261912688694362,17
20.83347224537423,0.4870590700550012,17
20.84347391231872,0.42068638617480925,17
20.85347557926321,0.37466957468874734,17
20.8634772462077,0.3222151120543161,17
20.873478913152194,0.2622966269774966,17
20.883480580096684,0.19903681228906786,17
20.893482247041174,0.18137042111253301,17
20.903483913985664,0.13577841308438143,17
20.913485580930157,0.09145800635358159,17
20.923487247874647,0.07178490760556741,17
20.933488914819137,0.042914211326382984,17
20.943490581763626,0.03849426510471956,17
20.95349224870812,0.010460414289426498,17
20.96349391565261,0.006577429269762163,17
20.9734955825971,0.015412011509431374,17
20.983497249541593,-0.005354325017286828,17
20.993498916486082,-0.0001960493970866936,17
21.003500583430572,-0.021248116524361545,17
21.013502250375062,-0.0002496511868134919,17
21.023503917319555,-0.020659191776107214,17
21.033505584264045,-0.009727926921256888,17
21.043507251208535,-0.013593862141849659,17
21.053508918153025,-0.02037980683273427,17
21.063510585097518,-0.04647104288153961,17
21.073512252042008,-0.0756218083553858,17
21.083513918986498,-0.07700209291848714,17
21.09351558593099,-0.0969348741101817,17
21.10351725287548,-0.1516264993664219,17
21.11351891981997,-0.19498622475824626,17
21.12352058676446,-0.22834077279172835,17
21.133522253708954,-0.28372232545108167,17
21.143523920653443,-0.31913067943632173,17
21.153525587597933,-0.3995772325385089,17
21.163527254542423,-0.43729533067431975,17
21.173528921486916,-0.4959039019738068,17
21.183530588431406,-0.5702662192675484,17
21.193532255375896,-0.6023267213542117,17
21.20353392232039,-0.6519390142533759,17
21.21353558926488,-0.687197046969665,17
21.22353725620937,-0.7261879973567171,17
21.23353892315386,-0.7543547006389806,17
21.243540590098352,-0.7697912506650781,17
21.25354225704284,-0.7891912248183404,17
21.26354392398733,-0.776813602604333,17
21.27354559093182,-0.7583446312088002,17
21.283547257876315,-0.7471268110015273,17
21.293548924820804,-0.6930152179809695,17
21.303550591765294,-0.6513412540652036,17
21.313552258709787,-0.5875451793700233,17
21.323553925654277,-0.5339150717110678,17
21.333555592598767,-0.4775868028488093,17
21.343557259543257,-0.3846013123240831,17
21.35355892648775,-0.297165037467603,17
21.36356059343224,-0.19881229389415978,17
21.37356226037673,-0.10686835827427416,17
21.38356392732122,0.018088448460464458,17
21.393565594265713,0.09939406854504677,17
21.403567261210203,0.19811923588807592,17
21.413568928154692,0.29552122949173065,17
21.423570595099186,0.38386890439547977,17
21.433572262043675,0.4781077186205904,17
21.443573928988165,0.5463362511443218,17
21.453575595932655,0.6109567364974142,17
21.46357726287715,0.6729427015664105,17
21.473578929821638,0.7071809881521132,17
21.483580596766128,0.7506145423058401,17
21.493582263710618,0.7901799482715192,17
21.50358393065511,0.7695631803587797,17
21.5135855975996,0.784794352068757,17
21.52358726454409,0.7685548465646186,17
21.533588931488584,0.7479808347093488,17
21.543590598433074,0.7065195117005534,17
21.553592265377564,0.68194959444592,17
21.563593932322053,0.6439729335408076,17
21.573595599266547,0.6068176272425162,17
21.583597266211036,0.5607631568903387,17
21.593598933155526,0.500626193123151,17
21.603600600100016,0.4546299232529778,17
21.61360226704451,0.36862849437103207,17
21.623603933989,0.30267931947496585,17
21.63360560093349,0.27207176589357646,17
21.64360726787798,0.23020689668386646,17
21.653608934822472,0.2032827866164182,17
21.663610601766962,0.1360684202612261,17
21.67361226871145,0.10777906302978657,17
21.683613935655945,0.08917661038749594,17
21.693615602600435,0.046347368079631385,17
21.703617269544925,0.04143468233302883,17
21.713618936489414,0.02813648335905232,17
21.723620603433908,0.009088946924509528,17
21.733622270378397,0.01209980963400012,17
21.743623937322887,-0.007385165455700591,17
21.753625604267377,-0.00860440596457524,17
21.76362727121187,0.0014328923740068887,17
21.77362893815636,0.0005891727138915239,17
21.78363060510085,0.015580651164175063,17
21.793632272045343,0.01580130958101051,17
21.803633938989833,-0.009935720304367414,17
21.813635605934323,-0.02257201295359497,17
21.823637272878813,-0.038877010340743506,17
21.833638939823306,-0.0509928061441315,17
21.843640606767796,-0.06758299068371759,17
21.853642273712286,-0.10521721783219769,17
21.863643940656775,-0.1570697472097356,17
21.87364560760127,-0.17225814519435625,17
21.88364727454576,-0.22547919289552742,17
21.893648941490248,-0.28103973174684005,17
21.90365060843474,-0.3022253257489132,17
21.91365227537923,-0.3627424655499659,17
21.92365394232372,-0.4103354335747264,17
21.93365560926821,-0.4828448097530902,17
21.943657276212704,-0.5567456330587879,17
21.953658943157194,-0.5837567573592661,17
21.963660610101684,-0.6311036203030354,17
21.973662277046174,-0.6723723198753031,17
21.983663943990667,-0.716252683728082,17
21.993665610935157,-0.7692485390803611,17
22.003667277879646,-0.7674057216876996,17
22.01366894482414,-0.7679673224598353,17
22.02367061176863,-0.7854445604996034,17
22.03367227871312,-0.7783674704003798,17
22.04367394565761,-0.7471524779910365,17
22.053675612602103,-0.7232574129227248,17
22.063677279546592,-0.6611150105487578,17
22.073678946491082,-0.6271910842839488,17
22.083680613435572,-0.5679001403301092,17
22.093682280380065,-0.5065340303754148,17
22.103683947324555,-0.3907839648197574,17
22.113685614269045,-0.3270738749049064,17
22.123687281213538,-0.2128812365628883,17
22.133688948158028,-0.12882471523297748,17
22.143690615102518,-0.03409153831441108,17
22.153692282047007,0.07135367344523752,17
22.1636939489915,0.15951085180157168,17
22.17369561593599,0.26707144540589633,17
22.18369728288048,0.3509099789429673,17
22.19369894982497,0.42233103245340975,17
22.203700616769463,0.4993070146809491,17
22.213702283713953,0.5871876133330916,17
22.223703950658443,0.6435480277715379,17
22.233705617602936,0.6970403075627422,17
22.243707284547426,0.7138523336928673,17
22.253708951491916,0.765143206938773,17
22.263710618436406,0.7601735294422667,17
22.2737122853809,0.7865541297218258,17
22.28371395232539,0.7788701442724915,17
22.29371561926988,0.7555831511860667,17
22.30371728621437,0.7293671506742657,17
22.313718953158862,0.7111245279256793,17
22.32372062010335,0.6696521430093485,17
22.33372228704784,0.6265784403657993,17
22.34372395399233,0.5593132597679206,17
22.353725620936824,0.4975848585611437,17
22.363727287881314,0.47571880442254566,17
22.373728954825804,0.40946869975331174,17
22.383730621770297,0.3445480574982901,17
22.393732288714787,0.30225393149109975,17
22.403733955659277,0.24298630004136576,17
22.413735622603767,0.18980442351055857,17
22.42373728954826,0.1608942748602812,17
22.43373895649275,0.1246876670730748,17
22.44374062343724,0.09065107621779611,17
22.45374229038173,0.06081412185735052,17
22.463743957326223,0.03949563538522225,17
22.473745624270713,0.019720755950416162,17
22.483747291215202,0.017530477059533037,17
22.493748958159696,0.010304385390959068,17
22.503750625104185,0.002411454573679074,17
22.513752292048675,0.009041565877183152,17
22.523753958993165,-0.004917696358438993,17
22.53375562593766,0.008684927080295973,17
22.543757292882148,0.017993046846542664,17
22.553758959826638,5.769791333594832e-05,17
22.563760626771128,-0.001912079981541596,17
22.57376229371562,0.002528885004412968,17
22.58376396066011,-0.029724767455104446,17
22.5937656276046,-0.04512300633315534,17
22.603767294549094,-0.055304279965488264,17
22.613768961493584,-0.08354858771539585,17
22.623770628438074,-0.10933383160401226,17
22.633772295382563,-0.1589825423049207,17
22.643773962327057,-0.17486596145849473,17
22.653775629271546,-0.24604926952505768,17
22.663777296216036,-0.31047370389390666,17
22.673778963160526,-0.3574571332693772,17
22.68378063010502,-0.421168694384044,17
22.69378229704951,-0.46908440827045306,17
22.703783963994,-0.5177247810014028,17
22.713785630938492,-0.5681135027894915,17
22.723787297882982,-0.6278295415505103,17
22.733788964827472,-0.6610720757968017,17
22.74379063177196,-0.6998764237126435,17
22.753792298716455,-0.72017678531655,17
22.763793965660945,-0.7673249641354483,17
22.773795632605434,-0.7811056497143952,17
22.783797299549924,-0.7713661672849402,17
22.793798966494418,-0.7649214986380983,17
22.803800633438907,-0.7639353615670874,17
22.813802300383397,-0.7306921681216998,17
22.82380396732789,-0.6941648013347528,17
22.83380563427238,-0.6353475370210727,17
22.84380730121687,-0.5818494041406205,17
22.85380896816136,-0.5301903006719274,17
22.863810635105853,-0.4210356742206843,17
22.873812302050343,-0.36084238480353803,17
22.883813968994833,-0.25624697616385966,17
22.893815635939323,-0.14409474687533488,17
22.903817302883816,-0.06884132497125137,17
22.913818969828306,0.016102828600089082,17
22.923820636772795,0.12352891865554833,17
22.93382230371729,0.22906908341931292,17
22.94382397066178,0.3250306718395303,17
22.95382563760627,0.4065217046592727,17
22.963827304550758,0.48477504801735805,17
22.97382897149525,0.5646013703593177,17
22.98383063843974,0.6176687581268725,17
22.99383230538423,0.6592187902648693,17
23.00383397232872,0.7174191327981353,17
23.013835639273214,0.7413203097074847,17
23.023837306217704,0.7716364016210999,17
23.033838973162194,0.7753523259071345,17
23.043840640106687,0.7939244460597469,17
23.053842307051177,0.7637495335343685,17
23.063843973995667,0.7444697499920216,17
23.073845640940156,0.7078143161628757,17
23.08384730788465,0.6791300786060971,17
23.09384897482914,0.6333090944621503,17
23.10385064177363,0.5928746353194281,17
23.11385230871812,0.5479555053084684,17
23.123853975662612,0.4911371476597766,17
23.133855642607102,0.40928670993379557,17
23.143857309551592,0.3517444096580566,17
23.153858976496082,0.32107633560022325,17
23.163860643440575,0.27068850281304657,17
23.173862310385065,0.21021621284480568,17
23.183863977329555,0.18194930896899275,17
23.193865644274048,0.1523579080921926,17
23.203867311218538,0.09948240278281284,17
23.213868978163028,0.07608948164038556,17
23.223870645107517,0.051436532673574495,17
23.23387231205201,0.01038484323005305,17
23.2438739789965,0.0171674589601403,17
23.25387564594099,0.01163770356153044,17
23.26387731288548,0.013782367775533315,17
23.273878979829973,0.0013602388257612265,17
23.283880646774463,0.005806152536970361,17
23.293882313718953,-0.015394457099069071,17
23.303883980663446,-0.0053786374576954,17
23.313885647607936,0.008834095033742016,17
23.323887314552426,0.00011171858719068173,17
23.333888981496916,-0.026142518223639402,17
23.34389064844141,-0.03297201195362956,17
23.3538923153859,-0.03361038209444449,17
23.36389398233039,-0.05238100840988783,17
23.37389564927488,-0.08534052782592759,17
23.38389731621937,-0.12117777050624051,17
23.39389898316386,-0.15681716678807578,17
23.40390065010835,-0.18526990869100773,17
23.413902317052845,-0.21884009872583898,17
23.423903983997334,-0.29274370709212094,17
23.433905650941824,-0.31178332569655204,17
23.443907317886314,-0.37911094349485064,17
23.453908984830807,-0.42732652239021807,17
23.463910651775297,-0.5011009872197973,17
23.473912318719787,-0.5425435001401416,17
23.483913985664277,-0.5978855931894148,17
23.49391565260877,-0.6589468546381256,17
23.50391731955326,-0.6867271974461775,17
23.51391898649775,-0.729907106418382,17
23.523920653442243,-0.7546427591737923,17
23.533922320386733,-0.7900402222489159,17
23.543923987331222,-0.7750938182092748,17
23.553925654275712,-0.7582937268347029,17
23.563927321220206,-0.7616428443875745,17
23.573928988164695,-0.7427547942081475,17
23.583930655109185,-0.7175904393205613,17
23.593932322053675,-0.6580572045797408,17
23.60393398899817,-0.6066811365071658,17
23.613935655942658,-0.5402802097454362,17
23.623937322887148,-0.44837848978811623,17
23.63393898983164,-0.39800730827298314,17
23.64394065677613,-0.28269003188654007,17
23.65394232372062,-0.19373045181607548,17
23.66394399066511,-0.12122759254039174,17
23.673945657609604,-0.006907271035828248,17
23.683947324554094,0.10548827983147638,17
23.693948991498583,0.18916080286161618,17
23.703950658443073,0.3183599049196561,17
23.713952325387567,0.3749983910443147,17
23.723953992332056,0.46954852239372613,17
23.733955659276546,0.5441270329397869,17
23.74395732622104,0.5798936501775531,17
23.75395899316553,0.6543122461483131,17
23.76396066011002,0.7114972604088029,17
23.77396232705451,0.7443058897989513,17
23.783963993999002,0.7630565193607086,17
23.793965660943492,0.7728395960348157,17
23.80396732788798,0.7791074342147822,17
23.81396899483247,0.7745519405930699,17
23.823970661776965,0.7464758801501151,17
23.833972328721455,0.7310317867081191,17
23.843973995665944,0.7028382622377335,17
23.853975662610434,0.6638148497795249,17
23.863977329554928,0.604346554620732,17
23.873978996499417,0.5515125477482417,17
23.883980663443907,0.5071812890045095,17
23.8939823303884,0.4426324933255082,17
23.90398399733289,0.3893959257901011,17
23.91398566427738,0.32490095137996045,17
23.92398733122187,0.29195686885666083,17
23.933988998166363,0.22384325361796498,17
23.943990665110853,0.194341393171612,17
23.953992332055343,0.14044498459112587,17
23.963993998999833,0.10993385602718769,17
23.973995665944326,0.07219923547384927,17
23.983997332888816,0.06752273131330708,17
23.993998999833305,0.0378196740201708,17
24.0040006667778,0.02075496596555485,17
24.01400233372229,0.015331124823397801,17
24.02400400066678,0.025051660386400307,17
24.034005667611268,-0.004061509261649382,17
24.04400733455576,-0.016291029787769192,17
24.05400900150025,0.004948390197280972,17
24.06401066844474,0.001788927408495066,17
24.07401233538923,0.0028360445671028107,17
24.084014002333724,-0.012715677598661518,17
24.094015669278214,-0.013362015835832783,17
24.104017336222704,-0.024574749084551668,17
24.114019003167197,-0.035841018256028666,17
24.124020670111687,-0.05270231328768791,17
24.134022337056177,-0.058456636240713365,17
24.144024004000666,-0.09684238700283244,17
24.15402567094516,-0.11978154363592107,17
24.16402733788965,-0.18482192068385564,17
24.17402900483414,-0.2073691245117391,17
24.18403067177863,-0.2722266577793137,17
24.194032338723122,-0.31306164593087504,17
24.204034005667612,-0.36607254081901175,17
24.214035672612102,-0.41861109491065374,17
24.224037339556595,-0.4805578898019484,17
24.234039006501085,-0.5251151423570897,17
24.244040673445575,-0.5907332498889591,17
24.254042340390065,-0.6209621801554132,17
24.264044007334558,-0.6979506768421931,17
24.274045674279048,-0.7141610371211291,17
24.284047341223538,-0.7284540757999476,17
24.294049008168027,-0.7586667807725378,17
24.30405067511252,-0.7887169707157557,17
24.31405234205701,-0.7648674524112284,17
24.3240540090015,-0.7588099043749699,17
24.334055675945994,-0.7564920367687951,17
24.344057342890483,-0.709441845108751,17
24.354059009834973,-0.6577943130557268,17
24.364060676779463,-0.611493242367032,17
24.374062343723956,-0.5628584720379424,17
24.384064010668446,-0.5071534093218777,17
24.394065677612936,-0.4134313973279689,17
24.404067344557426,-0.3196231164205724,17
24.41406901150192,-0.22317793308107975,17
24.42407067844641,-0.12070783641217234,17
24.4340723453909,-0.047747443919662236,17
24.444074012335392,0.053659792563710784,17
24.45407567927988,0.16432590724932036,17
24.46407734622437,0.2659136696223387,17
24.47407901316886,0.3474197140764927,17
24.484080680113355,0.42664619517372765,17
24.494082347057844,0.515767705382471,17
24.504084014002334,0.5511242393646013,17
24.514085680946824,0.6276288556754458,17
24.524087347891317,0.6811826855681283,17
24.534089014835807,0.7176466264095701,17
24.544090681780297,0.7619525368848318,17
24.554092348724787,0.7821271830031036,17
24.56409401566928,0.7711108478119832,17
24.57409568261377,0.7863881369927459,17
24.58409734955826,0.7641216612513081,17
24.594099016502753,0.7275494230653874,17
24.604100683447243,0.709656139043695,17
24.614102350391732,0.6541555828218363,17
24.624104017336222,0.6206474653727333,17
24.634105684280716,0.5610389626987473,17
24.644107351225205,0.5228007681156638,17
24.654109018169695,0.46780436802918524,17
24.664110685114185,0.41507062687815477,17
24.67411235205868,0.37147986363560814,17
24.684114019003168,0.2927567209295896,17
24.694115685947658,0.23288353271625972,17
24.70411735289215,0.20495081560285386,17
24.71411901983664,0.1588696079911289,17
24.72412068678113,0.11385303417211774,17
24.73412235372562,0.10253372337750594,17
24.744124020670114,0.08244929747375046,17
24.754125687614604,0.04649176814903343,17
24.764127354559093,0.02091537809780042,17
24.774129021503583,0.02928025684448861,17
24.784130688448077,0.01585375297887022,17
24.794132355392566,0.005016118760557932,17
24.804134022337056,0.026988215102298513,17
24.81413568928155,-0.008937694501464316,17
24.82413735622604,-0.0013387553615345064,17
24.83413902317053,-0.0037987790130768525,17
24.84414069011502,-0.011722546264372228,17
24.854142357059512,0.00012181617695590854,17
24.864144024004002,-0.01540841299553961,17
24.87414569094849,-0.034301975584448766,17
24.88414735789298,-0.03744895592736872,17
24.894149024837475,-0.06243481593778422,17
24.904150691781965,-0.08429288463531144,17
24.914152358726454,-0.14156519639977377,17
24.924154025670948,-0.17545282546203406,17
24.934155692615438,-0.22961607971180273,17
24.944157359559927,-0.25029900482398065,17
24.954159026504417,-0.29905677576528183,17
24.96416069344891,-0.36674032498772596,17
24.9741623603934,-0.4066094861325591,17
24.98416402733789,-0.4691793576643486,17
24.99416569428238,-0.5183595063537864,17
25.004167361226873,-0.5581367021767681,17
25.014169028171363,-0.5969732100215508,17
25.024170695115853,-0.6531821437761641,17
25.034172362060346,-0.6984916597014226,17
25.044174029004836,-0.7408293458813339,17
25.054175695949326,-0.768727880999619,17
25.064177362893815,-0.7788937942567922,17
25.07417902983831,-0.77243524798698,17
25.0841806967828,-0.7608127949260143,17
25.09418236372729,-0.7660351039183136,17
25.104184030671778,-0.7263313726472734,17
25.11418569761627,-0.6958102361695276,17
25.12418736456076,-0.6283410593305587,17
25.13418903150525,-0.5883444777443232,17
25.144190698449744,-0.48862326533712885,17
25.154192365394234,-0.43017347816833473,17
25.164194032338724,-0.36195561281475724,17
25.174195699283214,-0.25458472377223945,17
25.184197366227707,-0.16716995680216867,17
25.194199033172197,-0.06073959518186473,17
25.204200700116687,0.034297812747613815,17
25.214202367061176,0.13747529560694643,17
25.22420403400567,0.23199428749050954,17
25.23420570095016,0.3116417138396988,17
25.24420736789465,0.38285147319195983,17
25.25420903483914,0.48325015757229706,17
25.264210701783632,0.5727161341757856,17
25.274212368728122,0.6239446544398419,17
25.284214035672612,0.6752277085098354,17
25.294215702617105,0.7118680988238134,17
25.304217369561595,0.7416238018653861,17
25.314219036506085,0.7631307393280746,17
25.324220703450575,0.8024543696669928,17
25.334222370395068,0.7620044736828807,17
25.344224037339558,0.7537750164431598,17
25.354225704284048,0.7322728576027071,17
25.364227371228537,0.736539579125343,17
25.37422903817303,0.6994754412910504,17
25.38423070511752,0.6355466838875111,17
25.39423237206201,0.6093258793330002,17
25.404234039006504,0.5435309378611426,17
25.414235705950993,0.48289493185324006,17
25.424237372895483,0.4241161368399789,17
25.434239039839973,0.3941120084119788,17
25.444240706784466,0.32387225144318643,17
25.454242373728956,0.29057358999475413,17
25.464244040673446,0.21432280594392614,17
25.474245707617936,0.1599029390935417,17
25.48424737456243,0.1485866795108456,17
25.49424904150692,0.09383347119170207,17
25.50425070845141,0.07783464233751153,17
25.514252375395902,0.035754204831597,17
25.52425404234039,0.024096354065334065,17
25.53425570928488,0.014489592876927089,17
25.54425737622937,0.008872767502039094,17
25.554259043173865,0.0068407325681580314,17
25.564260710118354,-0.008580582578965707,17
25.574262377062844,-0.014245369605986777,17
25.584264044007334,-0.0062726966597645645,17
25.594265710951827,-0.0037204600584788586,17
25.604267377896317,0.0007426912823279455,17
25.614269044840807,0.003085495674550763,17
25.6242707117853,-0.016419029578842094,17
25.63427237872979,-0.018151486543967105,17
25.64427404567428,-0.03363790328010457,17
25.65427571261877,-0.05178853678926733,17
25.664277379563263,-0.06874610375564176,17
25.674279046507753,-0.11589795164303329,17
25.684280713452242,-0.16090448903180427,17
25.694282380396732,-0.1871974507291264,17
25.704284047341226,-0.23925187558193986,17
25.714285714285715,-0.25942965192304257,17
25.724287381230205,-0.3346201128421245,17
25.7342890481747,-0.3680077193152472,17
25.744290715119188,-0.4234162286885979,17
25.754292382063678,-0.5063130813830616,17
25.764294049008168,-0.552698509573903,17
25.77429571595266,-0.6013821357152997,17
25.78429738289715,-0.6389946289918566,17
25.79429904984164,-0.7045972591405485,17
25.80430071678613,-0.7406236132501497,17
25.814302383730624,-0.7284133105160111,17
25.824304050675114,-0.7661210138299054,17
25.834305717619603,-0.7660047190457606,17
25.844307384564097,-0.7744373963309507,17
25.854309051508586,-0.7614044992883868,17
25.864310718453076,-0.7166499771937184,17
25.874312385397566,-0.7005451466122523,17
25.88431405234206,-0.6748069024318807,17
25.89431571928655,-0.5967584299386093,17
25.90431738623104,-0.5290769300576754,17
25.91431905317553,-0.4553628781698875,17
25.924320720120022,-0.3993843827622491,17
25.934322387064512,-0.29731822420087445,17
25.944324054009,-0.19994880566615672,17
25.954325720953495,-0.11337727397977185,17
25.964327387897985,-0.007251711534753395,17
25.974329054842475,0.08592628778749387,17
25.984330721786964,0.19564844098723505,17
25.994332388731458,0.27262826350954894,17
26.004334055675947,0.3680418133075468,17
26.014335722620437,0.45550502399736564,17
26.024337389564927,0.51566562429918,17
26.03433905650942,0.5877152702622145,17
26.04434072345391,0.6570055980733271,17
26.0543423903984,0.695490357993254,17
26.06434405734289,0.7440114633912558,17
26.074345724287383,0.7557748982438555,17
26.084347391231873,0.774764174887019,17
26.094349058176363,0.7844709300865905,17
26.104350725120856,0.7673421268251674,17
26.114352392065346,0.7618096449879656,17
26.124354059009836,0.7271442238873428,17
26.134355725954325,0.6919078980928068,17
26.14435739289882,0.6538126590574267,17
26.15435905984331,0.6064245978638233,17
26.1643607267878,0.5668615658884085,17
26.174362393732288,0.4989572121299801,17
26.18436406067678,0.4225105754197541,17
26.19436572762127,0.41297610376938493,17
26.20436739456576,0.3453374215221695,17
26.214369061510254,0.2867108314700968,17
26.224370728454744,0.2501412482092593,17
26.234372395399234,0.1725339020197028,17
26.244374062343724,0.1406380525286331,17
26.254375729288217,0.12920591264359735,17
26.264377396232707,0.09133857547386079,17
26.274379063177197,0.057271651930461555,17
26.284380730121686,0.02663240255700098,17
26.29438239706618,0.006251724359101842,17
26.30438406401067,0.0029305273431058237,17
26.31438573095516,0.012313880336829274,17
26.324387397899653,0.009982698399073208,17
26.334389064844142,0.0014212898693929282,17
26.344390731788632,0.0040770837197017604,17
26.354392398733122,0.0007349366012750965,17
26.364394065677615,-0.01720210725539782,17
26.374395732622105,-0.024117536360838222,17
26.384397399566595,0.0005824222897746756,17
26.394399066511085,-0.012348665716620919,17
26.404400733455578,-0.030031695925276096,17
26.414402400400068,-0.03663454789639551,17
26.424404067344557,-0.06470061409609898,17
26.43440573428905,-0.08824428100384288,17
26.44440740123354,-0.1430633168904334,17
26.45440906817803,-0.160394452679513,17
26.46441073512252,-0.20850033732386247,17
26.474412402067014,-0.2669310673604326,17
26.484414069011503,-0.3124051434037703,17
26.494415735955993,-0.3645784890410451,17
26.504417402900483,-0.4334709375520193,17
26.514419069844976,-0.4738330044038628,17
26.524420736789466,-0.52142812490154,17
26.534422403733956,-0.5820059350287777,17
26.54442407067845,-0.6429344333008237,17
26.55442573762294,-0.662786051977639,17
26.56442740456743,-0.7138030071937169,17
26.57442907151192,-0.7418826426343034,17
26.584430738456412,-0.7515513055660705,17
26.5944324054009,-0.7763972282239348,17
26.60443407234539,-0.7813678736942655,17
26.61443573928988,-0.7556727588980306,17
26.624437406234374,-0.7331237067878675,17
26.634439073178864,-0.7189326492564948,17
26.644440740123354,-0.6712957072096069,17
26.654442407067847,-0.6255387482758008,17
26.664444074012337,-0.5601256289307196,17
26.674445740956827,-0.48863628165394357,17
26.684447407901317,-0.4160531198513672,17
26.69444907484581,-0.3365372350136713,17
26.7044507417903,-0.24105275812941868,17
26.71445240873479,-0.1506463482603777,17
26.72445407567928,-0.041211427983183675,17
26.734455742623773,0.07072912414971394,17
26.744457409568263,0.16338569395021765,17
26.754459076512752,0.256939971920901,17
26.764460743457242,0.35012995776043365,17
26.774462410401735,0.42923742382582797,17
26.784464077346225,0.5110345317812768,17
26.794465744290715,0.582522355153844,17
26.80446741123521,0.633424388750157,17
26.814469078179698,0.6771847755687371,17
26.824470745124188,0.7326054038640422,17
26.834472412068678,0.7601402921660153,17
26.84447407901317,0.7760948222946982,17
26.85447574595766,0.773126844004567,17
26.86447741290215,0.7631335658972325,17
26.87447907984664,0.7613618393890701,17
26.884480746791134,0.7380649326425331,17
26.894482413735624,0.7143087734017777,17
26.904484080680113,0.6547768632290397,17
26.914485747624607,0.6383845904693229,17
26.924487414569096,0.5858913641044359,17
26.934489081513586,0.5221894862194657,17
26.944490748458076,0.48420901880213674,17
26.95449241540257,0.4156512004162045,17
26.96449408234706,0.3866663119129307,17
26.97449574929155,0.3077129135645071,17
26.98449741623604,0.26086454717928764,17
26.994499083180532,0.20712247849376705,17
27.004500750125022,0.18024154464492304,17
27.01450241706951,0.15048702035416464,17
27.024504084014005,0.09724397545640208,17
27.034505750958495,0.07938165634269756,17
27.044507417902985,0.05966672938011648,17
27.054509084847474,0.022757836912903177,17
27.064510751791968,0.02906868120723778,17
27.074512418736457,0.009179052182598419,17
27.084514085680947,-0.006191575310219253,17
27.094515752625437,-0.005824575028355464,17
27.10451741956993,0.0014398258027103943,17
27.11451908651442,-0.0052181274806019345,17
27.12452075345891,-0.006121767132896494,17
27.134522420403403,0.006892595829733372,17
27.144524087347893,0.006000070473785346,17
27.154525754292383,-0.0050978876079948825,17
27.164527421236873,-0.03166058926832379,17
27.174529088181366,-0.04363491508111381,17
27.184530755125856,-0.057160934105891674,17
27.194532422070345,-0.08945147929955058,17
27.204534089014835,-0.11316283431440761,17
27.21453575595933,-0.1600817380618769,17
27.22453742290382,-0.20159625723578997,17
27.234539089848308,-0.24370123668963117,17
27.2445407567928,-0.31605426600144304,17
27.25454242373729,-0.35328047918304795,17
27.26454409068178,-0.3870215870544846,17
27.27454575762627,-0.45803607719576545,17
27.284547424570764,-0.5008814314398079,17
27.294549091515254,-0.566741109134196,17
27.304550758459744,-0.6187235810568777,17
27.314552425404234,-0.6506430729370817,17
27.324554092348727,-0.7056989790041925,17
27.334555759293217,-0.7369964220131602,17
27.344557426237706,-0.7657195029409161,17
27.3545590931822,-0.7782293812565001,17
27.36456076012669,-0.773605019556225,17
27.37456242707118,-0.7790994056968674,17
27.38456409401567,-0.7646789803345,17
27.394565760960162,-0.7345189981627787,17
27.404567427904652,-0.6894102743978456,17
27.414569094849142,-0.6335294468869421,17
27.424570761793632,-0.5905640151212211,17
27.434572428738125,-0.5054908184038173,17
27.444574095682615,-0.43860744137337476,17
27.454575762627105,-0.35226751789228056,17
27.464577429571595,-0.2719452415837672,17
27.474579096516088,-0.17930711535916097,17
27.484580763460578,-0.07195409902271335,17
27.494582430405067,0.0239669966073423,17
27.50458409734956,0.11033340693459888,17
27.51458576429405,0.21007249876923087,17
27.52458743123854,0.31108508718795264,17
27.53458909818303,0.37196615650228876,17
27.544590765127523,0.47075774881377824,17
27.554592432072013,0.55701120833473,17
27.564594099016503,0.604997072654501,17
27.574595765960993,0.6767161795626677,17
27.584597432905486,0.7009703788919466,17
27.594599099849976,0.7370310597490274,17
27.604600766794466,0.7860078240782894,17
27.61460243373896,0.7832497658956807,17
27.62460410068345,0.7841610346033187,17
27.63460576762794,0.7607380710069878,17
27.64460743457243,0.7667671556962494,17
27.65460910151692,0.722161340038605,17
27.66461076846141,0.6749014002459433,17
27.6746124354059,0.6555489227135727,17
27.68461410235039,0.5932936475509321,17
27.694615769294884,0.5339209085377865,17
27.704617436239374,0.4919781365853948,17
27.714619103183864,0.4353576220573756,17
27.724620770128357,0.38959171598657666,17
27.734622437072847,0.31760851981714877,17
27.744624104017337,0.281199364284915,17
27.754625770961827,0.2106942987742058,17
27.76462743790632,0.17983140165298428,17
27.77462910485081,0.15117512484948858,17
27.7846307717953,0.09302603555951337,17
27.79463243873979,0.07749939006964457,17
27.804634105684283,0.0488762968056045,17
27.814635772628773,0.0297876112199846,17
27.824637439573262,0.027708020396607615,17
27.834639106517756,0.006854165617862834,17
27.844640773462245,0.00736563989566826,17
27.854642440406735,0.0031220087245955215,17
27.864644107351225,-0.007077025012088234,17
27.87464577429572,-0.018701369104187206,17
27.884647441240208,0.0057473170511084404,17
27.894649108184698,-0.007004092134830467,17
27.904650775129188,-0.010485054675327444,17
27.91465244207368,-0.004638356514676495,17
27.92465410901817,-0.016602541565645133,17
27.93465577596266,-0.028226463865372038,17
27.944657442907154,-0.04976185695855777,17
27.954659109851644,-0.08449778871845547,17
27.964660776796133,-0.11238727110976306,17
27.974662443740623,-0.14518469041481197,17
27.984664110685117,-0.18433534831876625,17
27.994665777629606,-0.23678527036258815,17
28.004667444574096,-0.2766228802959389,17
28.014669111518586,-0.3212331129822149,17
28.02467077846308,-0.39107827276820767,17
28.03467244540757,-0.44283442704236153,17
28.04467411235206,-0.5003703568843065,17
28.054675779296552,-0.5509022356516438,17
28.064677446241042,-0.6108274825496318,17
28.07467911318553,-0.63561255259357,17
28.08468078013002,-0.6854718853172171,17
28.094682447074515,-0.7114821627365834,17
28.104684114019005,-0.7480999868736522,17
28.114685780963494,-0.7861569396879393,17
28.124687447907984,-0.7845166796483389,17
28.134689114852478,-0.7789219213893857,17
28.144690781796967,-0.7597458156503936,17
28.154692448741457,-0.747331368462004,17
