time,ppg_signal,subject_id
0.0,-0.017260945440781654,3
0.010001666944490749,0.09377250665151135,3
0.020003333888981498,0.20084672243142476,3
0.030005000833472247,0.3062963462814766,3
0.040006667777962995,0.4081962897292205,3
0.050008334722453744,0.48501084644050574,3
0.06001000166694449,0.5639954982621368,3
0.07001166861143523,0.6136266259096628,3
0.08001333555592599,0.6745748920155252,3
0.09001500250041675,0.7067851453416806,3
0.10001666944490749,0.7455486424116877,3
0.11001833638939823,0.7580999209002482,3
0.12002000333388899,0.780570815172884,3
0.13002167027837974,0.7915396238575868,3
0.14002333722287047,0.7694334566157442,3
0.15002500416736123,0.7266088274772362,3
0.16002667111185198,0.7052990834462459,3
0.17002833805634274,0.6487598287027379,3
0.1800300050008335,0.5968162840554265,3
0.19003167194532422,0.5688708660519,3
0.20003333888981498,0.49893961080466814,3
0.21003500583430573,0.43072440018875585,3
0.22003667277879646,0.373094742714606,3
0.23003833972328722,0.33183482395396646,3
0.24004000666777797,0.2889763542924429,3
0.2500416736122687,0.22905409397250423,3
0.2600433405567595,0.18502390749263958,3
0.2700450075012502,0.14492618092193144,3
0.28004667444574094,0.1206373894275763,3
0.2900483413902317,0.07085414725825848,3
0.30005000833472245,0.031289307204867424,3
0.31005167527921323,0.041738024054655654,3
0.32005334222370396,0.02093622599076104,3
0.3300550091681947,0.015365944200560226,3
0.3400566761126855,-0.009866853781909688,3
0.3500583430571762,-0.00934816763778907,3
0.360060010001667,0.007420363175620084,3
0.3700616769461577,-0.0016032436597209292,3
0.38006334389064844,-0.0010955337316229236,3
0.3900650108351392,0.0014124732360403895,3
0.40006667777962995,-0.028578320940902773,3
0.4100683447241207,-0.006540047008301129,3
0.42007001166861146,-0.01789236630048395,3
0.4300716786131022,-0.06838272855255945,3
0.4400733455575929,-0.07945359897093206,3
0.4500750125020837,-0.11056811517600211,3
0.46007667944657443,-0.1454345312566174,3
0.4700783463910652,-0.20563892611665066,3
0.48008001333555594,-0.2173375325738241,3
0.49008168028004667,-0.28938937886071864,3
0.5000833472245374,-0.342823171278687,3
0.5100850141690282,-0.3976092132833011,3
0.520086681113519,-0.45882767879637404,3
0.5300883480580096,-0.5317028702774539,3
0.5400900150025004,-0.5786988005248324,3
0.5500916819469912,-0.626522540183781,3
0.5600933488914819,-0.689005597706175,3
0.5700950158359727,-0.6974444949828168,3
0.5800966827804634,-0.72405703734793,3
0.5900983497249542,-0.7599164378775859,3
0.6001000166694449,-0.7713309171539918,3
0.6101016836139357,-0.7813260318268739,3
0.6201033505584265,-0.7688658151969319,3
0.6301050175029171,-0.7497817906243157,3
0.6401066844474079,-0.7244265684966856,3
0.6501083513918987,-0.6790060592256022,3
0.6601100183363894,-0.6094774580470512,3
0.6701116852808802,-0.5477416590916694,3
0.680113352225371,-0.45269892068091483,3
0.6901150191698616,-0.3768617361193297,3
0.7001166861143524,-0.2873990113476147,3
0.7101183530588432,-0.19173778698352556,3
0.720120020003334,-0.08324170732263399,3
0.7301216869478246,0.011430059132005973,3
0.7401233538923154,0.11039710004279964,3
0.7501250208368062,0.21093303734786478,3
0.7601266877812969,0.33269891801684126,3
0.7701283547257877,0.4239052910919268,3
0.7801300216702785,0.49941589775164585,3
0.7901316886147691,0.5491085904843098,3
0.8001333555592599,0.62016424858137,3
0.8101350225037507,0.6767812812720542,3
0.8201366894482414,0.7330584502558284,3
0.8301383563927321,0.7513698020245407,3
0.8401400233372229,0.7731977969354699,3
0.8501416902817136,0.7876172670090268,3
0.8601433572262044,0.7663560805195795,3
0.8701450241706952,0.7470143367470129,3
0.8801466911151858,0.751584093011237,3
0.8901483580596766,0.7154193557848217,3
0.9001500250041674,0.6543925527218767,3
0.9101516919486582,0.5997607436455292,3
0.9201533588931489,0.5489172562002339,3
0.9301550258376396,0.49578668437390166,3
0.9401566927821304,0.4322877019570382,3
0.9501583597266211,0.3802939600329095,3
0.9601600266711119,0.3151626847791642,3
0.9701616936156027,0.27278977456549236,3
0.9801633605600933,0.19344199258200884,3
0.9901650275045841,0.15845930503397987,3
1.0001666944490748,0.1270931596226774,3
1.0101683613935657,0.08863084476308672,3
1.0201700283380564,0.058185588094909285,3
1.030171695282547,0.04695294336985536,3
1.040173362227038,0.03431306384511902,3
1.0501750291715286,0.01880071831929129,3
1.0601766961160193,0.018199941906562322,3
1.0701783630605102,0.0030752855562787354,3
1.0801800300050008,-0.006792090754064975,3
1.0901816969494915,0.007191305809745922,3
1.1001833638939824,-0.00654242873077563,3
1.110185030838473,-0.021312148985009688,3
1.1201866977829638,-0.00032944579498154873,3
1.1301883647274547,-0.014808066810092606,3
1.1401900316719453,-0.021328479983820668,3
1.1501916986164362,-0.03420930943715902,3
1.160193365560927,-0.06861660877504729,3
1.1701950325054176,-0.0851785466569141,3
1.1801966994499085,-0.11083691160774238,3
1.1901983663943991,-0.13158481905116498,3
1.2002000333388898,-0.19667427323135683,3
1.2102017002833807,-0.24181572014648406,3
1.2202033672278714,-0.28482021095301724,3
1.230205034172362,-0.35449117799040086,3
1.240206701116853,-0.40849909872222123,3
1.2502083680613436,-0.4646547616014859,3
1.2602100350058343,-0.518327689133656,3
1.2702117019503252,-0.5821441837556164,3
1.2802133688948159,-0.6197900265271593,3
1.2902150358393065,-0.6860157646599054,3
1.3002167027837974,-0.6941487371425914,3
1.310218369728288,-0.7489593957755276,3
1.3202200366727788,-0.7605298647452289,3
1.3302217036172697,-0.7925083535207624,3
1.3402233705617603,-0.7753601916887102,3
1.350225037506251,-0.75776747130481,3
1.360226704450742,-0.7545686501625994,3
1.3702283713952326,-0.7192871434377239,3
1.3802300383397232,-0.6604759833416018,3
1.3902317052842141,-0.6006469702919963,3
1.4002333722287048,-0.517302835549898,3
1.4102350391731955,-0.44585369746395703,3
1.4202367061176864,-0.34558304641146076,3
1.430238373062177,-0.28339476816273107,3
1.440240040006668,-0.15639892289499624,3
1.4502417069511586,-0.06811950138938583,3
1.4602433738956493,0.03601579265400005,3
1.4702450408401402,0.14056214906015504,3
1.4802467077846309,0.23014100426047093,3
1.4902483747291215,0.3256648822469026,3
1.5002500416736124,0.42775622589438395,3
1.510251708618103,0.5103717624867654,3
1.5202533755625938,0.589372121241683,3
1.5302550425070847,0.6455182908860306,3
1.5402567094515753,0.697926315607777,3
1.550258376396066,0.7500952278676837,3
1.560260043340557,0.7596915231186676,3
1.5702617102850476,0.786985350398217,3
1.5802633772295382,0.7633036689923863,3
1.5902650441740291,0.7553560339726502,3
1.6002667111185198,0.7635770063445564,3
1.6102683780630105,0.7263348183199697,3
1.6202700450075014,0.6803741165679003,3
1.630271711951992,0.636032208903241,3
1.6402733788964827,0.589755534484549,3
1.6502750458409736,0.5252785888081943,3
1.6602767127854643,0.49348528425279936,3
1.670278379729955,0.4145474821247024,3
1.6802800466744459,0.3526150599203256,3
1.6902817136189365,0.3259638998748016,3
1.7002833805634272,0.23848401962466062,3
1.710285047507918,0.19253462543924288,3
1.7202867144524088,0.14404517528379185,3
1.7302883813968994,0.12737095808458085,3
1.7402900483413903,0.09764126484356923,3
1.750291715285881,0.05205479789456069,3
1.7602933822303717,0.032411671537331356,3
1.7702950491748626,0.04214332591474099,3
1.7802967161193533,0.022229510904759497,3
1.7902983830638441,-0.013007699684772469,3
1.8003000500083348,0.015966547277296385,3
1.8103017169528255,0.0075437658129630485,3
1.8203033838973164,0.013373072389744792,3
1.830305050841807,0.006943862512304362,3
1.8403067177862977,0.0037286440937110803,3
1.8503083847307886,-0.0018009314585373448,3
1.8603100516752793,-0.008556822458851145,3
1.87031171861977,-0.015705132494435222,3
1.8803133855642609,-0.04482726002982718,3
1.8903150525087515,-0.04444074433518597,3
1.9003167194532422,-0.09012951675046274,3
1.910318386397733,-0.12181880074551413,3
1.9203200533422238,-0.18039861046770425,3
1.9303217202867144,-0.18910070835368606,3
1.9403233872312053,-0.2425702166544808,3
1.950325054175696,-0.2935960643719471,3
1.9603267211201867,-0.37261548211450085,3
1.9703283880646776,-0.39754411522368627,3
1.9803300550091683,-0.4819085725107299,3
1.990331721953659,-0.5357527337282727,3
2.0003333888981496,-0.5971109554357201,3
2.0103350558426407,-0.6603354697303319,3
2.0203367227871314,-0.681744082025444,3
2.030338389731622,-0.7150629046135217,3
2.0403400566761127,-0.7719850249128344,3
2.0503417236206034,-0.7746274118728168,3
2.060343390565094,-0.7771795479425475,3
2.070345057509585,-0.7741755721427922,3
2.080346724454076,-0.7778306920855202,3
2.0903483913985665,-0.7423653374999519,3
2.100350058343057,-0.6854055177853621,3
2.110351725287548,-0.6394854136408483,3
2.1203533922320386,-0.5674020419673851,3
2.1303550591765297,-0.5139855522778066,3
2.1403567261210203,-0.43912424705729314,3
2.150358393065511,-0.34422659732872646,3
2.1603600600100017,-0.24922790079394555,3
2.1703617269544924,-0.13547077142542263,3
2.180363393898983,-0.0354115453918475,3
2.190365060843474,0.07568360351713024,3
2.200366727787965,0.15978625917413997,3
2.2103683947324555,0.27129098094615955,3
2.220370061676946,0.3498139553205369,3
2.230371728621437,0.4326050717945536,3
2.2403733955659275,0.5294190323818216,3
2.2503750625104186,0.6012030909680505,3
2.2603767294549093,0.6732401113296486,3
2.2703783963994,0.7204235952399364,3
2.2803800633438907,0.7521944976386608,3
2.2903817302883813,0.7622332361912014,3
2.3003833972328724,0.7783023358150192,3
2.310385064177363,0.764954039424172,3
2.320386731121854,0.7841087466622548,3
2.3303883980663445,0.7289681298606954,3
2.340390065010835,0.7047144129540374,3
2.350391731955326,0.6679630293695737,3
2.360393398899817,0.6262202873345118,3
2.3703950658443076,0.5900674768563277,3
2.3803967327887983,0.5296229372936414,3
2.390398399733289,0.4656403299284798,3
2.4004000666777796,0.3997798149929388,3
2.4104017336222703,0.3463218995300992,3
2.4204034005667614,0.30079411027423175,3
2.430405067511252,0.2438925496667069,3
2.4404067344557427,0.20175172003270586,3
2.4504084014002334,0.1528776636475015,3
2.460410068344724,0.10356194794113398,3
2.4704117352892148,0.08978171377546791,3
2.480413402233706,0.048930431737793295,3
2.4904150691781965,0.034097599392309705,3
2.5004167361226872,0.016171147295010672,3
2.510418403067178,0.004919838476470231,3
2.5204200700116686,0.008362792107252624,3
2.5304217369561592,-0.009842541976871648,3
2.5404234039006504,0.014891479914205606,3
2.550425070845141,0.004068365510490892,3
2.5604267377896317,-0.001928183089220341,3
2.5704284047341224,-0.0018498403043657964,3
2.580430071678613,-0.002612779268452483,3
2.590431738623104,-0.014135659117020643,3
2.600433405567595,-0.028102443291682253,3
2.6104350725120855,-0.03452354687856163,3
2.620436739456576,-0.05750017085004465,3
2.630438406401067,-0.08355181456972124,3
2.6404400733455575,-0.12315555964753071,3
2.6504417402900486,-0.15162887007205267,3
2.6604434072345393,-0.21884216677242702,3
2.67044507417903,-0.2584647246464694,3
2.6804467411235207,-0.31237079092175446,3
2.6904484080680113,-0.371080415226621,3
2.700450075012502,-0.4277426311455543,3
2.710451741956993,-0.4919433425640269,3
2.720453408901484,-0.5416614870731535,3
2.7304550758459745,-0.6035517355774395,3
2.740456742790465,-0.6429001665590128,3
2.750458409734956,-0.6828440103356608,3
2.7604600766794465,-0.7300982572033243,3
2.7704617436239376,-0.7306911538238561,3
2.7804634105684283,-0.7881118446172899,3
2.790465077512919,-0.7921488236356007,3
2.8004667444574096,-0.7707576030211168,3
2.8104684114019003,-0.743718305276789,3
2.820470078346391,-0.7403186780854314,3
2.830471745290882,-0.687729986262559,3
2.8404734122353728,-0.627688635126914,3
2.8504750791798634,-0.5749216294973525,3
2.860476746124354,-0.4937304296092913,3
2.8704784130688448,-0.42345194603335484,3
2.880480080013336,-0.32548605434689254,3
2.8904817469578266,-0.2274314317612317,3
2.9004834139023172,-0.1267100005122423,3
2.910485080846808,-0.02768412371612833,3
2.9204867477912986,0.09263773339091337,3
2.9304884147357892,0.1933718150335405,3
2.9404900816802804,0.27993584070805405,3
2.950491748624771,0.3601679409448063,3
2.9604934155692617,0.455186857683777,3
2.9704950825137524,0.5360145834588574,3
2.980496749458243,0.6001089986338339,3
2.9904984164027337,0.6707820779879661,3
3.000500083347225,0.7205976224110959,3
3.0105017502917155,0.7638889644394556,3
3.020503417236206,0.7776530650217249,3
3.030505084180697,0.7735441058034594,3
3.0405067511251875,0.7653889001742753,3
3.050508418069678,0.7708780389952696,3
3.0605100850141693,0.7413533358493303,3
3.07051175195866,0.7181033740985491,3
3.0805134189031507,0.6740091302920712,3
3.0905150858476413,0.6328644668500841,3
3.100516752792132,0.5636225073628778,3
3.1105184197366227,0.4981381609585409,3
3.120520086681114,0.4659766103216733,3
3.1305217536256045,0.40616451413150545,3
3.140523420570095,0.3372364130133454,3
3.150525087514586,0.28240297071223225,3
3.1605267544590765,0.227410923069516,3
3.170528421403567,0.19269339724721626,3
3.1805300883480583,0.1398489236259412,3
3.190531755292549,0.10816217961673026,3
3.2005334222370396,0.08350112672789005,3
3.2105350891815303,0.040830871769004254,3
3.220536756126021,0.02617573351502756,3
3.230538423070512,0.019732624039967478,3
3.2405400900150028,-0.0087168229553982,3
3.2505417569594934,-0.006562831452201568,3
3.260543423903984,0.00792999272195622,3
3.270545090848475,-0.007442931909052909,3
3.2805467577929655,0.005021137072256619,3
3.2905484247374566,-0.011142382449515402,3
3.3005500916819472,-0.0042240246017631496,3
3.310551758626438,-0.00687727968465321,3
3.3205534255709286,-0.011989850653829612,3
3.3305550925154193,-0.027601495330116965,3
3.34055675945991,-0.05363495892011526,3
3.350558426404401,-0.08532724186349144,3
3.3605600933488917,-0.09377777381544838,3
3.3705617602933824,-0.13750780108465077,3
3.380563427237873,-0.19356291618926563,3
3.3905650941823637,-0.23351008899030926,3
3.4005667611268544,-0.2699512215423721,3
3.4105684280713455,-0.32288156865396656,3
3.420570095015836,-0.3746852922119287,3
3.430571761960327,-0.43982348823624806,3
3.4405734289048175,-0.4846611399145519,3
3.450575095849308,-0.5545023706338669,3
3.460576762793799,-0.6271740920444504,3
3.47057842973829,-0.6748780324574202,3
3.4805800966827807,-0.7005381872282818,3
3.4905817636272714,-0.7230410188741133,3
3.500583430571762,-0.7551224936979074,3
3.5105850975162527,-0.7791835244419111,3
3.5205867644607434,-0.7743814102918285,3
3.5305884314052345,-0.7784904492553889,3
3.540590098349725,-0.7610559677780462,3
3.550591765294216,-0.7038282321617069,3
3.5605934322387065,-0.6838058976724486,3
3.570595099183197,-0.6133214727349657,3
3.5805967661276883,-0.5580133465338386,3
3.590598433072179,-0.47412772884499005,3
3.6006001000166696,-0.3988863222946663,3
3.6106017669611603,-0.29710791390889474,3
3.620603433905651,-0.1961362637246963,3
3.6306051008501417,-0.1047845025695082,3
3.6406067677946328,-0.01876754094535782,3
3.6506084347391234,0.1041305187379871,3
3.660610101683614,0.20158431654118453,3
3.670611768628105,0.2978289939680909,3
3.6806134355725955,0.3877039028521009,3
3.690615102517086,0.48331939096693854,3
3.7006167694615772,0.5510915347676764,3
3.710618436406068,0.6183721411836558,3
3.7206201033505586,0.6689759519633014,3
3.7306217702950493,0.7251846375831759,3
3.74062343723954,0.7627898107209758,3
3.7506251041840306,0.7847085514888753,3
3.7606267711285217,0.7816207179417851,3
3.7706284380730124,0.7680609483677554,3
3.780630105017503,0.7709775875575162,3
3.7906317719619937,0.7357266053936938,3
3.8006334389064844,0.7051459546057831,3
3.810635105850975,0.6536527179739651,3
3.820636772795466,0.603884055385187,3
3.830638439739957,0.5330373398399636,3
3.8406401066844476,0.5145214104872124,3
3.8506417736289382,0.42774939527308964,3
3.860643440573429,0.3851541985976538,3
3.87064510751792,0.34713925269977924,3
3.8806467744624107,0.2873910784784198,3
3.8906484414069014,0.21375521714304999,3
3.900650108351392,0.17688291399285413,3
3.9106517752958827,0.13298522397914073,3
3.9206534422403734,0.08771130446437979,3
3.9306551091848645,0.06637713294779256,3
3.940656776129355,0.06234022611482096,3
3.950658443073846,0.019228567941610077,3
3.9606601100183365,0.029395146979746378,3
3.970661776962827,0.0059170769236881575,3
3.980663443907318,-0.030067263982150372,3
3.990665110851809,-0.02010487962864596,3
4.000666777796299,-0.009446129375401045,3
4.01066844474079,-0.006038624959282772,3
4.020670111685281,-0.007634379943724939,3
4.030671778629772,0.004964326075297915,3
4.040673445574263,-0.008122175402607585,3
4.0506751125187535,-0.01134577000907766,3
4.060676779463244,-0.03204135878413161,3
4.070678446407735,-0.05926941129095244,3
4.0806801133522255,-0.0680724059794433,3
4.090681780296716,-0.10973163025228327,3
4.100683447241207,-0.14162010337335032,3
4.1106851141856975,-0.18669198794859462,3
4.120686781130188,-0.2331609862298977,3
4.130688448074679,-0.2787955453751004,3
4.14069011501917,-0.33153894314002197,3
4.150691781963661,-0.3852856039402459,3
4.160693448908152,-0.4500157692755673,3
4.170695115852642,-0.510182413189919,3
4.180696782797133,-0.5554924865123881,3
4.190698449741624,-0.6374792641226337,3
4.200700116686114,-0.687508337604686,3
4.210701783630605,-0.7103927605559734,3
4.220703450575096,-0.7421182660563734,3
4.2307051175195864,-0.7555157620202992,3
4.240706784464077,-0.7652326522176617,3
4.250708451408569,-0.7690494428735644,3
4.260710118353059,-0.7511194351009219,3
4.27071178529755,-0.7473172157675245,3
4.280713452242041,-0.7186014281408506,3
4.290715119186531,-0.6693348297011995,3
4.300716786131022,-0.6261948765768374,3
4.310718453075513,-0.5392604609017833,3
4.320720120020003,-0.45465092276691227,3
4.330721786964494,-0.3763680091014942,3
4.340723453908985,-0.27463689964568133,3
4.350725120853475,-0.19046022621252015,3
4.360726787797966,-0.09267924866127923,3
4.370728454742458,0.02291352791576315,3
4.380730121686948,0.12688127139566036,3
4.390731788631439,0.22434502562638062,3
4.40073345557593,0.3233130460966047,3
4.41073512252042,0.4311312208057224,3
4.420736789464911,0.485052394992867,3
4.430738456409402,0.5549183737179627,3
4.440740123353892,0.6455258058937963,3
4.450741790298383,0.6769721408079061,3
4.460743457242874,0.7489365905485135,3
4.470745124187364,0.7456064556685115,3
4.480746791131855,0.7701138283642462,3
4.490748458076347,0.761611831003559,3
4.500750125020837,0.7742454343996648,3
4.510751791965328,0.752235929253723,3
4.520753458909819,0.7304548706533944,3
4.530755125854309,0.6736203687132946,3
4.5407567927988,0.6567734566995244,3
4.550758459743291,0.6074939416037236,3
4.560760126687781,0.5581772351883346,3
4.570761793632272,0.4832230416409586,3
4.580763460576763,0.43372365780624156,3
4.590765127521253,0.3792691048025349,3
4.600766794465745,0.31342900068250357,3
4.6107684614102356,0.2679682664877136,3
4.620770128354726,0.21581423396234659,3
4.630771795299217,0.1668172597017034,3
4.640773462243708,0.12562518645130016,3
4.650775129188198,0.08871253080014269,3
4.660776796132689,0.0688385313348138,3
4.67077846307718,0.030113035851266547,3
4.68078013002167,0.02227397046529778,3
4.690781796966161,0.03681844839166036,3
4.700783463910652,0.0017918766855073518,3
4.710785130855142,0.010672479151030253,3
4.720786797799634,-0.002027193383457795,3
4.7307884647441245,-0.0018165375414760576,3
4.740790131688615,0.004213928559023543,3
4.750791798633106,0.011200102243700681,3
4.7607934655775965,-0.00524323347356298,3
4.770795132522087,-0.013236304829393385,3
4.780796799466578,-0.02084476120033509,3
4.7907984664110685,-0.01826665919892946,3
4.800800133355559,-0.047292399454835564,3
4.81080180030005,-0.08759542052222717,3
4.820803467244541,-0.11271077079221141,3
4.830805134189032,-0.1505612519046836,3
4.840806801133523,-0.17544827429174623,3
4.8508084680780135,-0.24635729047415358,3
4.860810135022504,-0.29665525289809586,3
4.870811801966995,-0.3552405538523184,3
4.8808134689114855,-0.4026768903188402,3
4.890815135855976,-0.4692860946624277,3
4.900816802800467,-0.5166995766761112,3
4.9108184697449575,-0.5949957797758585,3
4.920820136689448,-0.649327329451819,3
4.930821803633939,-0.677114797977773,3
4.9408234705784295,-0.7197320727558697,3
4.950825137522921,-0.7497492903900032,3
4.960826804467412,-0.7778382942390453,3
4.970828471411902,-0.7800327107228318,3
4.980830138356393,-0.7780642147277356,3
4.990831805300884,-0.7679153795453572,3
5.0008334722453744,-0.7417194955981853,3
5.010835139189865,-0.7101528571607854,3
5.020836806134356,-0.6604529381992431,3
5.0308384730788465,-0.6045121139826377,3
5.040840140023337,-0.5235963220892049,3
5.050841806967828,-0.4458248845815356,3
5.0608434739123185,-0.3507428503633245,3
5.07084514085681,-0.2506801895607887,3
5.080846807801301,-0.16319089694356403,3
5.090848474745791,-0.07363443020110755,3
5.100850141690282,0.02674570060545979,3
5.110851808634773,0.13829008723042216,3
5.120853475579263,0.24325662489524733,3
5.130855142523754,0.3307652561645529,3
5.140856809468245,0.4317800553642038,3
5.150858476412735,0.5128904618371757,3
5.160860143357226,0.5881877867978715,3
5.170861810301717,0.6470609974347029,3
5.180863477246208,0.6912308314533957,3
5.190865144190699,0.7385137514829918,3
5.20086681113519,0.7674137700433015,3
5.21086847807968,0.7697913613095502,3
5.220870145024171,0.7849595734381802,3
5.230871811968662,0.7790315052245357,3
5.240873478913152,0.7579489940965877,3
5.250875145857643,0.7168376054741814,3
5.260876812802134,0.6933849437199114,3
5.270878479746624,0.6389704686670533,3
5.280880146691115,0.6037191812045528,3
5.290881813635606,0.5382486168874834,3
5.300883480580097,0.4698162212851244,3
5.310885147524588,0.43218454193194994,3
5.320886814469079,0.3571118540645427,3
5.330888481413569,0.31965682208048507,3
5.34089014835806,0.25996540136684737,3
5.350891815302551,0.20664691010658956,3
5.360893482247041,0.15327156165478795,3
5.370895149191532,0.1104708536170362,3
5.380896816136023,0.09937446225378843,3
5.390898483080513,0.0521979586573454,3
5.400900150025004,0.041414269950026714,3
5.410901816969495,0.02773614168270186,3
5.420903483913986,0.013478728861368779,3
5.430905150858477,0.011404602963139571,3
5.440906817802968,0.006163882460378692,3
5.450908484747458,-0.010060906593336322,3
5.460910151691949,-0.006308912081971347,3
5.47091181863644,0.0045848260919353736,3
5.48091348558093,-0.001200193834071274,3
5.490915152525421,-0.02721289494147341,3
5.500916819469912,-0.014297081138087976,3
5.510918486414402,-0.016405918474387583,3
5.520920153358893,-0.04609713960940708,3
5.5309218203033845,-0.055081150246561475,3
5.540923487247875,-0.09326611642482437,3
5.550925154192366,-0.11131493272721409,3
5.5609268211368565,-0.16784550030743556,3
5.570928488081347,-0.19739115847398547,3
5.580930155025838,-0.2602796356207144,3
5.590931821970329,-0.3221216618837305,3
5.600933488914819,-0.36690973221951556,3
5.61093515585931,-0.41141407630281346,3
5.620936822803801,-0.4600467733118263,3
5.630938489748291,-0.538609126766823,3
5.640940156692782,-0.6175115719786376,3
5.6509418236372735,-0.6394450819261841,3
5.660943490581764,-0.6892056983248142,3
5.670945157526255,-0.7274986956360473,3
5.6809468244707455,-0.7519186751154597,3
5.690948491415236,-0.7742450278623074,3
5.700950158359727,-0.7876488866815353,3
5.7109518253042175,-0.7756605971603511,3
5.720953492248708,-0.7551252067001091,3
5.730955159193199,-0.7359523240654223,3
5.7409568261376895,-0.6942822362865468,3
5.75095849308218,-0.637665035534586,3
5.760960160026672,-0.5739568162770186,3
5.7709618269711624,-0.512677840178716,3
5.780963493915653,-0.44789396948028,3
5.790965160860144,-0.33708030286706286,3
5.8009668278046345,-0.24870327484755084,3
5.810968494749125,-0.14095130004602552,3
5.820970161693616,-0.0555968974577699,3
5.8309718286381065,0.06861907035008283,3
5.840973495582597,0.15205193138637418,3
5.850975162527088,0.25899351182307706,3
5.8609768294715785,0.3749821192609809,3
5.870978496416069,0.44675094689122935,3
5.880980163360561,0.5234116221785023,3
5.890981830305051,0.5870897909028332,3
5.900983497249542,0.651467347319877,3
5.910985164194033,0.6980337273461019,3
5.920986831138523,0.7456161267257255,3
5.930988498083014,0.7598801630590253,3
5.940990165027505,0.7793413722398149,3
5.950991831971995,0.7685718755789162,3
5.960993498916486,0.7804379004761612,3
5.970995165860977,0.7357623736103104,3
5.9809968328054675,0.7236875820888325,3
5.990998499749958,0.6739261681108764,3
6.00100016669445,0.6394853847238866,3
6.01100183363894,0.5765379602528481,3
6.021003500583431,0.5156368757285948,3
6.031005167527922,0.47856427273056534,3
6.041006834472412,0.4081436386552202,3
6.051008501416903,0.359969633180582,3
6.061010168361394,0.2958683562822286,3
6.071011835305884,0.25007061887236953,3
6.081013502250375,0.18508153129874316,3
6.091015169194866,0.16371165656447167,3
6.101016836139356,0.10280993284933553,3
6.111018503083848,0.0972535230789899,3
6.121020170028339,0.055496702084911614,3
6.131021836972829,0.031723063860552875,3
6.14102350391732,0.028264728205309824,3
6.151025170861811,0.02809125950526157,3
6.161026837806301,0.015313547028517935,3
6.171028504750792,0.002217569362411977,3
6.181030171695283,-0.002683392352943443,3
6.191031838639773,-0.007535079087774661,3
6.201033505584264,0.007487936404627514,3
6.211035172528755,0.014679733073969452,3
6.221036839473245,-0.04273838139709994,3
6.231038506417737,-0.012308807604884526,3
6.241040173362228,-0.021948177921770312,3
6.251041840306718,-0.05175715732040406,3
6.261043507251209,-0.07034978159985408,3
6.2710451741957,-0.10736480051305348,3
6.28104684114019,-0.13466666372689806,3
6.291048508084681,-0.16454240229138437,3
6.301050175029172,-0.21897752998957756,3
6.311051841973662,-0.2648814546543404,3
6.321053508918153,-0.3229998270932614,3
6.331055175862644,-0.37185634089749514,3
6.341056842807134,-0.41257399528495187,3
6.351058509751626,-0.4908344569074822,3
6.361060176696117,-0.5539426588295652,3
6.371061843640607,-0.6093773698029247,3
6.381063510585098,-0.6474419938442645,3
6.391065177529589,-0.6937003639086691,3
6.401066844474079,-0.7185546160396491,3
6.41106851141857,-0.7752501901086344,3
6.421070178363061,-0.7711989591126095,3
6.431071845307551,-0.7803921137508756,3
6.441073512252042,-0.7674977523319869,3
6.451075179196533,-0.7650405130250623,3
6.461076846141024,-0.728166169841228,3
6.471078513085515,-0.6846252058272689,3
6.4810801800300055,-0.6250527744432209,3
6.491081846974496,-0.568833657382209,3
6.501083513918987,-0.4956550253734467,3
6.5110851808634775,-0.4253238057878469,3
6.521086847807968,-0.32843017457825635,3
6.531088514752459,-0.2369447682187414,3
6.54109018169695,-0.12387102471766542,3
6.55109184864144,-0.01259851822205025,3
6.561093515585931,0.07373687111904022,3
6.571095182530422,0.17440497500402855,3
6.581096849474913,0.2930733624743878,3
6.591098516419404,0.3907743051316521,3
6.6011001833638945,0.4633513075906829,3
6.611101850308385,0.5320929471788305,3
6.621103517252876,0.6102391445788017,3
6.6311051841973665,0.6403576100070614,3
6.641106851141857,0.7103191114491797,3
6.651108518086348,0.7517102846391368,3
6.6611101850308385,0.7600861536730832,3
6.671111851975329,0.7732864896099969,3
6.68111351891982,0.7772350698075511,3
6.6911151858643105,0.77138676022545,3
6.701116852808802,0.7197977182031849,3
6.711118519753293,0.6954570468728402,3
6.721120186697783,0.6763559776735217,3
6.731121853642274,0.6252457139576324,3
6.741123520586765,0.5836441010862524,3
6.7511251875312555,0.5242997844170263,3
6.761126854475746,0.4677393244123705,3
6.771128521420237,0.388379195200326,3
6.7811301883647275,0.3359305554296941,3
6.791131855309218,0.2715190928606864,3
6.801133522253709,0.21909852867818974,3
6.8111351891982,0.1780456176340636,3
6.821136856142691,0.14995592266405655,3
6.831138523087182,0.12584432906100984,3
6.841140190031672,0.10243138852288083,3
6.851141856976163,0.038902907463496485,3
6.861143523920654,0.0258803755932612,3
6.871145190865144,0.009187189094270881,3
6.881146857809635,0.008339900956327934,3
6.891148524754126,0.008415890312881175,3
6.901150191698616,0.0017848707124929765,3
6.911151858643107,0.0023464303629957806,3
6.921153525587598,0.0020156588614074784,3
6.931155192532089,0.0036108142867004303,3
6.94115685947658,-0.0033885543330475893,3
6.951158526421071,-0.010969889236220897,3
6.961160193365561,-0.011785620054871632,3
6.971161860310052,-0.02924340736271208,3
6.981163527254543,-0.04390228943283191,3
6.991165194199033,-0.06111607676209483,3
7.001166861143524,-0.0871421471938668,3
7.011168528088015,-0.1401877387612306,3
7.021170195032505,-0.18496452427328303,3
7.031171861976996,-0.22120902296385464,3
7.041173528921487,-0.27835609544146983,3
7.051175195865978,-0.3120562485003484,3
7.061176862810469,-0.3829101785324392,3
7.07117852975496,-0.44032737875723094,3
7.08118019669945,-0.4942203386616094,3
7.091181863643941,-0.5659093025775188,3
7.101183530588432,-0.6119783545193395,3
7.111185197532922,-0.6511621651628193,3
7.121186864477413,-0.691966742506777,3
7.131188531421904,-0.7343169473527279,3
7.141190198366394,-0.7576829801835019,3
7.151191865310885,-0.7629210680204146,3
7.161193532255377,-0.769177692247704,3
7.171195199199867,-0.7782116532496108,3
7.181196866144358,-0.7648700916665905,3
7.191198533088849,-0.716664029007138,3
7.201200200033339,-0.6883972055048821,3
7.21120186697783,-0.6155568919608505,3
7.221203533922321,-0.5579965250748246,3
7.231205200866811,-0.48246606930062186,3
7.241206867811302,-0.39980940682627125,3
7.251208534755793,-0.31690531296323216,3
7.261210201700283,-0.2044311295682072,3
7.271211868644774,-0.10106571913728554,3
7.2812135355892655,-0.00201897467781223,3
7.291215202533756,0.10040450188584935,3
7.301216869478247,0.20121928030917421,3
7.311218536422738,0.28225969804377654,3
7.321220203367228,0.3858306725076576,3
7.331221870311719,0.49583372677159643,3
7.34122353725621,0.5548585608939459,3
7.3512252042007,0.6133579797086643,3
7.361226871145191,0.6716886407886395,3
7.371228538089682,0.708557776007245,3
7.381230205034172,0.7651253915663171,3
7.391231871978664,0.7673153810084418,3
7.4012335389231545,0.7769245012497064,3
7.411235205867645,0.7499288202537943,3
7.421236872812136,0.7528957413167723,3
7.4312385397566265,0.7362172036896961,3
7.441240206701117,0.7184227810554407,3
7.451241873645608,0.646988948924978,3
7.4612435405900985,0.61251993513135,3
7.471245207534589,0.564848647364006,3
7.48124687447908,0.512775375785808,3
7.4912485414235706,0.44528143273747617,3
7.501250208368061,0.3823281572519478,3
7.511251875312553,0.35333826950239666,3
7.5212535422570435,0.2772587934927017,3
7.531255209201534,0.22089305702354062,3
7.541256876146025,0.1676390361220867,3
7.5512585430905155,0.13837344030849116,3
7.561260210035006,0.10519997133500295,3
7.571261876979497,0.07213668041120581,3
7.5812635439239875,0.045660453515803154,3
7.591265210868478,0.023975775191254902,3
7.601266877812969,-0.008597069245136126,3
7.6112685447574595,0.006368143946810037,3
7.62127021170195,0.006265762826985832,3
7.631271878646442,0.007400500031709269,3
7.641273545590932,0.009580538992069104,3
7.651275212535423,0.003694213919827467,3
7.661276879479914,0.0014268991041933347,3
7.671278546424404,-0.009201907306812276,3
7.681280213368895,-0.009353054970635419,3
7.691281880313386,-0.019775722074558796,3
7.7012835472578764,-0.021124142597395715,3
7.711285214202367,-0.054523613292525176,3
7.721286881146858,-0.06870096314653641,3
7.7312885480913485,-0.10066279078556145,3
7.74129021503584,-0.1491806965088762,3
7.751291881980331,-0.17744888910078366,3
7.761293548924821,-0.24363313181139873,3
7.771295215869312,-0.28255054931496026,3
7.781296882813803,-0.35330953746652577,3
7.791298549758293,-0.3885722588281053,3
7.801300216702784,-0.44320574977957544,3
7.811301883647275,-0.5115631323494733,3
7.821303550591765,-0.5695571952781192,3
7.831305217536256,-0.6241479689640586,3
7.841306884480747,-0.6743221527965935,3
7.851308551425237,-0.7070393491575624,3
7.861310218369729,-0.7406313857111284,3
7.87131188531422,-0.7575126800780363,3
7.88131355225871,-0.7721793938858076,3
7.891315219203201,-0.7951498235582467,3
7.901316886147692,-0.7613296608091664,3
7.911318553092182,-0.7466497109725982,3
7.921320220036673,-0.7202357820247839,3
7.931321886981164,-0.6681636251703932,3
7.941323553925654,-0.6037130920259995,3
7.951325220870145,-0.551688522725371,3
7.961326887814636,-0.4831702224531386,3
7.971328554759126,-0.3672127193569099,3
7.981330221703618,-0.2926865268140879,3
7.991331888648109,-0.18140076627888346,3
8.001333555592598,-0.08229798410054417,3
8.01133522253709,0.01385340197315995,3
8.02133688948158,0.12685775656129938,3
8.031338556426071,0.2032984971001189,3
8.041340223370563,0.3078859256578557,3
8.051341890315053,0.405984269496245,3
8.061343557259544,0.4862637194559348,3
8.071345224204034,0.553325649349675,3
8.081346891148526,0.6198887500206308,3
8.091348558093015,0.6902188136215376,3
8.101350225037507,0.7177960363508349,3
8.111351891981997,0.7577033638620373,3
8.121353558926488,0.7659664741909619,3
8.131355225870978,0.7865902475386781,3
8.14135689281547,0.7749078560394509,3
8.151358559759961,0.7637192314377412,3
8.161360226704451,0.7298073314565662,3
8.171361893648942,0.693889613434186,3
8.181363560593432,0.6452355358167563,3
8.191365227537924,0.5881803001163919,3
8.201366894482414,0.5557920272661909,3
8.211368561426905,0.5021102315355199,3
8.221370228371395,0.4388822813820076,3
8.231371895315887,0.36851917500935577,3
8.241373562260376,0.32813623903208405,3
8.251375229204868,0.2830247110529805,3
8.261376896149358,0.1953948749376129,3
8.27137856309385,0.17111597323100095,3
8.28138023003834,0.13337776956233238,3
8.29138189698283,0.09270339391260725,3
8.301383563927322,0.07841245289804974,3
8.311385230871812,0.04245967273343032,3
8.321386897816303,0.012542132036304894,3
8.331388564760793,0.0026494005476725754,3
8.341390231705285,-0.010243023142357359,3
8.351391898649775,0.009925189625275829,3
8.361393565594266,-0.010882320150617183,3
8.371395232538756,0.004759306631777208,3
8.381396899483248,-0.016259364974167592,3
8.391398566427739,0.0025420946256142565,3
8.401400233372229,0.0020736238749428405,3
8.41140190031672,0.013584415973800688,3
8.42140356726121,-0.02262611388178449,3
8.431405234205702,-0.036231135818812626,3
8.441406901150192,-0.051366437553892294,3
8.451408568094683,-0.07136307080750143,3
8.461410235039173,-0.11121812667689886,3
8.471411901983664,-0.16249377200153542,3
8.481413568928154,-0.17738368676143748,3
8.491415235872646,-0.22563382536978563,3
8.501416902817137,-0.2828850816016442,3
8.511418569761627,-0.33361431630416233,3
8.521420236706119,-0.4129816375069576,3
8.531421903650608,-0.4435872100880899,3
8.5414235705951,-0.5236238762267034,3
8.55142523753959,-0.5569132862062088,3
8.561426904484081,-0.6295411134331883,3
8.571428571428571,-0.684953408506771,3
8.581430238373063,-0.7198005258908837,3
8.591431905317553,-0.750628361917307,3
8.601433572262044,-0.7481300767449683,3
8.611435239206534,-0.7796277831635258,3
8.621436906151025,-0.7799010738471401,3
8.631438573095517,-0.7707978532383842,3
8.641440240040007,-0.742187889054202,3
8.651441906984498,-0.7080343302231662,3
8.661443573928988,-0.6387779381037476,3
8.67144524087348,-0.5962256595412314,3
8.68144690781797,-0.548485273492942,3
8.691448574762461,-0.4490751259469829,3
8.70145024170695,-0.3558713928200843,3
8.711451908651442,-0.25792824119040864,3
8.721453575595932,-0.16001833100341314,3
8.731455242540424,-0.06250096871408242,3
8.741456909484915,0.03132408532915687,3
8.751458576429405,0.14007607887710313,3
8.761460243373897,0.22141622379483192,3
8.771461910318386,0.32668954571386233,3
8.781463577262878,0.4073405166258233,3
8.791465244207368,0.5064060263249512,3
8.80146691115186,0.567339485458625,3
8.811468578096349,0.6521605245558256,3
8.82147024504084,0.7028700673138704,3
8.83147191198533,0.7284832537767173,3
8.841473578929822,0.7671611082837966,3
8.851475245874314,0.7784121184836748,3
8.861476912818803,0.7723486869907864,3
8.871478579763295,0.7653585125630656,3
8.881480246707785,0.7636806945532926,3
8.891481913652276,0.7257860908191067,3
8.901483580596766,0.6940682305671827,3
8.911485247541258,0.647090468688661,3
8.921486914485747,0.5766240723553601,3
8.931488581430239,0.5517846048695462,3
8.941490248374729,0.4790126607332333,3
8.95149191531922,0.4205777881312724,3
8.96149358226371,0.34224748989372145,3
8.971495249208202,0.3202469724208636,3
8.981496916152693,0.24495252089101704,3
8.991498583097183,0.17948384012955151,3
9.001500250041675,0.151257814053144,3
9.011501916986164,0.11189777657244505,3
9.021503583930656,0.1063373510447215,3
9.031505250875146,0.06417160455616865,3
9.041506917819637,0.03970648654622651,3
9.051508584764127,0.033730636936281505,3
9.061510251708619,0.011190270210775271,3
9.071511918653108,0.009072637270394807,3
9.0815135855976,0.011649487785938946,3
9.091515252542091,0.016759327369943393,3
9.101516919486581,0.010738384691289253,3
9.111518586431073,0.007404938333024958,3
9.121520253375563,0.005267962201220776,3
9.131521920320054,-0.017503330960223995,3
9.141523587264544,-0.024453884668138866,3
9.151525254209036,-0.02437334174863487,3
9.161526921153525,-0.02015983537327355,3
9.171528588098017,-0.07971715412705972,3
9.181530255042507,-0.08778045435201812,3
9.191531921986998,-0.12021758069625764,3
9.20153358893149,-0.1793080917553408,3
9.21153525587598,-0.18821585502906385,3
9.221536922820471,-0.24878627369677475,3
9.231538589764961,-0.3037289206822252,3
9.241540256709452,-0.3622895897812537,3
9.251541923653942,-0.4146901364486537,3
9.261543590598434,-0.4641198149064305,3
9.271545257542924,-0.5373878300025179,3
9.281546924487415,-0.606903759694124,3
9.291548591431905,-0.6347412884077595,3
9.301550258376396,-0.6925400088705532,3
9.311551925320888,-0.717969660388543,3
9.321553592265378,-0.7646326696067971,3
9.33155525920987,-0.7588050248188956,3
9.34155692615436,-0.7792284214102525,3
9.35155859309885,-0.767813321067983,3
9.36156026004334,-0.7839561377348929,3
9.371561926987832,-0.7195130040442762,3
9.381563593932322,-0.7123194739347714,3
9.391565260876813,-0.6551777998637315,3
9.401566927821303,-0.5799348249818344,3
9.411568594765795,-0.5166216887129166,3
9.421570261710285,-0.43979612041274657,3
9.431571928654776,-0.3505111263902999,3
9.441573595599268,-0.2587288444742542,3
9.451575262543757,-0.15959462897756307,3
9.461576929488249,-0.030989724090338233,3
9.471578596432739,0.06251954685499445,3
9.48158026337723,0.15625896020580826,3
9.49158193032172,0.2633520080365369,3
9.501583597266212,0.3379986306614281,3
9.511585264210701,0.45626674973744064,3
9.521586931155193,0.5232877279785598,3
9.531588598099683,0.5933456545495462,3
9.541590265044174,0.6452727866606062,3
9.551591931988666,0.7142347030965125,3
9.561593598933156,0.7398177148997276,3
9.571595265877647,0.7516710647272714,3
9.581596932822137,0.7820625604075419,3
9.591598599766629,0.7753415174586681,3
9.601600266711118,0.777457581852087,3
9.61160193365561,0.7516827521578751,3
9.6216036006001,0.7004973928463833,3
9.631605267544591,0.6665141853031125,3
9.641606934489081,0.6280316332130143,3
9.651608601433573,0.5681238300275042,3
9.661610268378064,0.5261441985597524,3
9.671611935322554,0.472385136630565,3
9.681613602267046,0.4120366692127578,3
9.691615269211535,0.36778162852789015,3
9.701616936156027,0.3018825223666179,3
9.711618603100517,0.24323508013563597,3
9.721620270045008,0.21739125287369673,3
9.731621936989498,0.150915389086379,3
9.74162360393399,0.11411143633514045,3
9.75162527087848,0.10985331840616641,3
9.761626937822971,0.05763816837414557,3
9.77162860476746,0.02395421001610471,3
9.781630271711952,0.03333474811285265,3
9.791631938656444,0.00971180413538195,3
9.801633605600934,0.017436857121717227,3
9.811635272545425,-0.017846466577893808,3
9.821636939489915,-0.029556583459439272,3
9.831638606434407,0.0065089500342735765,3
9.841640273378896,0.01414688112381636,3
9.851641940323388,-0.011208063946142696,3
9.861643607267878,-0.00035181029891486696,3
9.87164527421237,-0.019971669539782508,3
9.881646941156859,-0.023414889535143,3
9.89164860810135,-0.03328202162806563,3
9.901650275045842,-0.08365211319476656,3
9.911651941990332,-0.08935426957845172,3
9.921653608934824,-0.1271442077880949,3
9.931655275879313,-0.1746514346994549,3
9.941656942823805,-0.2169605282337595,3
9.951658609768295,-0.27329686987962265,3
9.961660276712786,-0.31732189905824626,3
9.971661943657276,-0.370340997596765,3
9.981663610601768,-0.42453025274823586,3
9.991665277546257,-0.48470672096035444,3
10.001666944490749,-0.5327265035991052,3
10.01166861143524,-0.5895288072991751,3
10.02167027837973,-0.6367464538445546,3
10.031671945324222,-0.6851279767253442,3
10.041673612268712,-0.7171184388725456,3
10.051675279213203,-0.7551785238605475,3
10.061676946157693,-0.760964615555349,3
10.071678613102184,-0.7652429188818798,3
10.081680280046674,-0.7997484106903286,3
10.091681946991166,-0.7621100370488485,3
10.101683613935656,-0.7401508402980634,3
10.111685280880147,-0.6957682489144922,3
10.121686947824637,-0.6213093563990449,3
10.131688614769129,-0.5766746632676146,3
10.14169028171362,-0.5131001321371621,3
10.15169194865811,-0.42033380693121336,3
10.161693615602601,-0.3125827359751454,3
10.171695282547091,-0.22686955921412538,3
10.181696949491583,-0.12586422938061825,3
10.191698616436073,-0.03401745656456591,3
10.201700283380564,0.07047142711400692,3
10.211701950325054,0.19140860208889746,3
10.221703617269545,0.293359215255874,3
10.231705284214035,0.37886003276241886,3
10.241706951158527,0.4796759674426857,3
10.251708618103018,0.5366768469105541,3
10.261710285047508,0.6163495765217043,3
10.271711951992,0.6389713965353354,3
10.28171361893649,0.7232105670793136,3
10.291715285880981,0.7336142682690969,3
10.30171695282547,0.7530848475158588,3
10.311718619769962,0.7635015716094282,3
10.321720286714452,0.7778249644657995,3
10.331721953658944,0.7685860960824886,3
10.341723620603434,0.7408388498285375,3
10.351725287547925,0.7176174502784928,3
10.361726954492417,0.6826226219173452,3
10.371728621436906,0.6385764700804075,3
10.381730288381398,0.5720051756688138,3
10.391731955325888,0.5089211817182322,3
10.40173362227038,0.4611620171843756,3
10.41173528921487,0.40085590507631313,3
10.42173695615936,0.33996977799107836,3
10.43173862310385,0.29281690281362893,3
10.441740290048342,0.24485563991905704,3
10.451741956992832,0.18438298586037186,3
10.461743623937323,0.14037155665741816,3
10.471745290881813,0.09849801990150701,3
10.481746957826305,0.0719257993084559,3
10.491748624770796,0.0639508016497985,3
10.501750291715286,0.04195524135372065,3
10.511751958659778,0.03403703983035866,3
10.521753625604267,-0.009772983434210798,3
10.531755292548759,0.001268138528083065,3
10.541756959493249,0.0055906864371283995,3
10.55175862643774,-0.0126816990199089,3
10.56176029338223,0.0009321646743216049,3
10.571761960326722,0.0012010247383805643,3
10.581763627271211,-0.0006020661958817154,3
10.591765294215703,-0.026481559817980716,3
10.601766961160195,-0.013334801791400437,3
10.611768628104684,-0.021287220721878705,3
10.621770295049176,-0.04196403829304627,3
10.631771961993666,-0.056005306150523466,3
10.641773628938157,-0.114770858652159,3
10.651775295882647,-0.15592901464363854,3
10.661776962827139,-0.1683909699709094,3
10.671778629771628,-0.2270090668909142,3
10.68178029671612,-0.2874743140590206,3
10.69178196366061,-0.323628010403691,3
10.701783630605101,-0.38686640139982664,3
10.711785297549593,-0.4180628227983388,3
10.721786964494083,-0.49989218664710694,3
10.731788631438574,-0.561088708204068,3
10.741790298383064,-0.5888916721876196,3
10.751791965327556,-0.6569236371328624,3
10.761793632272045,-0.6936486603028875,3
10.771795299216537,-0.7152391145123657,3
10.781796966161027,-0.764787991496917,3
10.791798633105518,-0.7761777628502741,3
10.801800300050008,-0.7765477041476934,3
10.8118019669945,-0.7674404102742493,3
10.82180363393899,-0.7611403258733862,3
10.831805300883481,-0.7371045682199505,3
10.841806967827972,-0.6810347681496277,3
10.851808634772462,-0.6391092166787649,3
10.861810301716954,-0.5601882478733129,3
10.871811968661444,-0.48420169627581255,3
10.881813635605935,-0.4139783705169864,3
10.891815302550425,-0.3178002621470093,3
10.901816969494917,-0.22178433313787255,3
10.911818636439406,-0.09346975921393527,3
10.921820303383898,-0.015495326427030592,3
10.931821970328388,0.10819365727381988,3
10.94182363727288,0.1818740306234765,3
10.95182530421737,0.30454416942464335,3
10.96182697116186,0.3970240409765044,3
10.971828638106352,0.4861899278599007,3
10.981830305050842,0.5442936844723121,3
10.991831971995333,0.6212672797353669,3
11.001833638939823,0.6682277446715578,3
11.011835305884315,0.7123065617074238,3
11.021836972828805,0.7508666059138176,3
11.031838639773296,0.7684376700963091,3
11.041840306717786,0.7740717407163336,3
11.051841973662277,0.7671457106008476,3
11.061843640606769,0.774897911289974,3
11.071845307551259,0.748625393013415,3
11.08184697449575,0.7189143659812826,3
11.09184864144024,0.6577669800761745,3
11.101850308384732,0.6102605436261475,3
11.111851975329222,0.5431233822122707,3
11.121853642273713,0.5031239052643458,3
11.131855309218203,0.44980324142290484,3
11.141856976162694,0.3866243944485556,3
11.151858643107184,0.343099900398411,3
11.161860310051676,0.2846605531380402,3
11.171861976996166,0.22701651567708758,3
11.181863643940657,0.1945212183989664,3
11.191865310885149,0.16232468980627915,3
11.201866977829638,0.1120598064835048,3
11.21186864477413,0.07816322945392856,3
11.22187031171862,0.05413220163420569,3
11.231871978663111,0.009475184773380586,3
11.241873645607601,0.027089828284807868,3
11.251875312552093,0.001754530085631984,3
11.261876979496583,0.0015346910883661884,3
11.271878646441074,0.003652386205102137,3
11.281880313385564,0.032353315004157855,3
11.291881980330055,-0.009576101912257525,3
11.301883647274547,-0.008575696442981166,3
11.311885314219037,-0.011522335930675543,3
11.321886981163528,-0.010951216917736869,3
11.331888648108018,-0.004469580769503717,3
11.34189031505251,-0.028531455014113388,3
11.351891981997,-0.043672497115719855,3
11.361893648941491,-0.054057681855845904,3
11.37189531588598,-0.09477087569708827,3
11.381896982830472,-0.15207309220352566,3
11.391898649774962,-0.18687485336384996,3
11.401900316719454,-0.22828318362754943,3
11.411901983663945,-0.2930871037639586,3
11.421903650608435,-0.3315639635308615,3
11.431905317552927,-0.3921344429742318,3
11.441906984497416,-0.44546257644533704,3
11.451908651441908,-0.5036520252382042,3
11.461910318386398,-0.5687686861890203,3
11.47191198533089,-0.6122234005239846,3
11.481913652275379,-0.6584490399362307,3
11.49191531921987,-0.718762755954845,3
11.50191698616436,-0.7318509711516904,3
11.511918653108852,-0.772229653165179,3
11.521920320053344,-0.7811524565307375,3
11.531921986997833,-0.777008215711345,3
11.541923653942325,-0.7670981129136655,3
11.551925320886815,-0.74368214825041,3
11.561926987831306,-0.7253629723746777,3
11.571928654775796,-0.6616096099662587,3
11.581930321720288,-0.6113042726679933,3
11.591931988664777,-0.5617989754293031,3
11.601933655609269,-0.4647197115242686,3
11.611935322553759,-0.3804315731329205,3
11.62193698949825,-0.2775625202019228,3
11.63193865644274,-0.18000039515991134,3
11.641940323387232,-0.0835529569433913,3
11.651941990331723,0.01854780811613884,3
11.661943657276213,0.11275546463363254,3
11.671945324220705,0.23443716584446064,3
11.681946991165194,0.31582606761764837,3
11.691948658109686,0.4003821699605875,3
11.701950325054176,0.495032488826103,3
11.711951991998667,0.557367687514554,3
11.721953658943157,0.6295185644641624,3
11.731955325887649,0.6681167167980852,3
11.741956992832138,0.709289345764686,3
11.75195865977663,0.7700432446926552,3
11.761960326721121,0.7854989475364331,3
11.771961993665611,0.7732099647712986,3
11.781963660610103,0.7702490668478787,3
11.791965327554593,0.7576600474445859,3
11.801966994499084,0.7508828248571231,3
11.811968661443574,0.6918095587419081,3
11.821970328388065,0.6317570709886903,3
11.831971995332555,0.6113926918865992,3
11.841973662277047,0.5442453137062915,3
11.851975329221537,0.49274247935138377,3
11.861976996166028,0.44996405934737166,3
11.87197866311052,0.38748205367430355,3
11.88198033005501,0.33630283878283057,3
11.891981996999501,0.26338065228403146,3
11.90198366394399,0.22170345651001971,3
11.911985330888482,0.16788481688799867,3
11.921986997832972,0.13130371392132395,3
11.931988664777464,0.11184366903902065,3
11.941990331721954,0.050874340247337016,3
11.951991998666445,0.037086446360766565,3
11.961993665610935,0.015526937787046717,3
11.971995332555426,0.019131161159628356,3
11.981996999499916,-0.005578596631675453,3
11.991998666444408,0.02167726379017483,3
12.0020003333889,-0.014713040386377213,3
12.01200200033339,-0.015064546756065642,3
12.02200366727788,0.0008225381703564154,3
12.03200533422237,-0.01695334861730513,3
12.042007001166862,-0.023180551685307752,3
12.052008668111352,0.01268441190941319,3
12.062010335055843,-0.018796161710116464,3
12.072012002000333,-0.038412468354180954,3
12.082013668944825,-0.0525812487675507,3
12.092015335889315,-0.08285159728890681,3
12.102017002833806,-0.11919815651380844,3
12.112018669778298,-0.13673046711262285,3
12.122020336722787,-0.17412659971311037,3
12.132022003667279,-0.2450239553338135,3
12.142023670611769,-0.2829735119332568,3
12.15202533755626,-0.34351810838317126,3
12.16202700450075,-0.4182234634936149,3
12.172028671445242,-0.4661316421447701,3
12.182030338389731,-0.5260698131079881,3
12.192032005334223,-0.5623567144879317,3
12.202033672278713,-0.6256625067052871,3
12.212035339223204,-0.6735374528198089,3
12.222037006167696,-0.718940119051667,3
12.232038673112186,-0.7513107604023191,3
12.242040340056677,-0.7478555081720322,3
12.252042007001167,-0.7691675562516733,3
12.262043673945659,-0.7856942642250125,3
12.272045340890148,-0.7698760694391914,3
12.28204700783464,-0.749988573126931,3
12.29204867477913,-0.7009713779644219,3
12.302050341723621,-0.6526463603981205,3
12.312052008668111,-0.6131608351229237,3
12.322053675612603,-0.5218701233927456,3
12.332055342557092,-0.4535483200295235,3
12.342057009501584,-0.39054747504634274,3
12.352058676446076,-0.2781269441517482,3
12.362060343390565,-0.156962026906032,3
12.372062010335057,-0.07522922000940577,3
12.382063677279547,0.035887673335918094,3
12.392065344224038,0.1351233792574562,3
12.402067011168528,0.2284203903136408,3
12.41206867811302,0.3169040459910792,3
12.42207034505751,0.44369826144457414,3
12.432072012002001,0.5117770005157043,3
12.44207367894649,0.5732373006571639,3
12.452075345890982,0.6467837781860665,3
12.462077012835474,0.6883477040279953,3
12.472078679779964,0.7406067374243765,3
12.482080346724455,0.7502636778527995,3
12.492082013668945,0.7824785650199724,3
12.502083680613437,0.7741200952921571,3
12.512085347557926,0.7684803290953874,3
12.522087014502418,0.7363132398978977,3
12.532088681446908,0.7283113950527251,3
12.5420903483914,0.6861562361151204,3
12.552092015335889,0.652301952861711,3
12.56209368228038,0.5859012003884941,3
12.572095349224872,0.541529866660352,3
12.582097016169362,0.4654124873666258,3
12.592098683113853,0.4143683882138606,3
12.602100350058343,0.37698223885391957,3
12.612102017002835,0.3170608980473273,3
12.622103683947325,0.26297028788436005,3
12.632105350891816,0.2170194046542916,3
12.642107017836306,0.14657671305525838,3
12.652108684780798,0.1270011817501162,3
12.662110351725287,0.09038860041967244,3
12.672112018669779,0.04963551921577106,3
12.682113685614269,0.03277542189590003,3
12.69211535255876,0.02313407171125415,3
12.702117019503252,-0.007950286842843421,3
12.712118686447742,0.0022301888281191936,3
12.722120353392233,0.0036466508263500496,3
12.732122020336723,-0.003640475726028254,3
12.742123687281214,-0.004595793764854795,3
12.752125354225704,0.00298407386949838,3
12.762127021170196,-0.0002648131030785828,3
12.772128688114686,-0.017364750412225814,3
12.782130355059177,-0.018525624022382805,3
12.792132022003667,-0.016060991835041186,3
12.802133688948159,-0.02344464378385402,3
12.81213535589265,-0.05737055067916863,3
12.82213702283714,-0.06353978881931857,3
12.832138689781631,-0.10607227632530686,3
12.842140356726121,-0.1591603371894626,3
12.852142023670613,-0.22502976097204136,3
12.862143690615103,-0.24506815690452094,3
12.872145357559594,-0.2840690627602317,3
12.882147024504084,-0.3561713944085254,3
12.892148691448575,-0.4091086810905267,3
12.902150358393065,-0.45111470576911333,3
12.912152025337557,-0.5187209271929906,3
12.922153692282048,-0.5907496021808312,3
12.932155359226538,-0.6241637190946722,3
12.94215702617103,-0.6650037270771445,3
12.95215869311552,-0.7209464877685449,3
12.962160360060011,-0.7284727669769246,3
12.9721620270045,-0.7558567936162186,3
12.982163693948992,-0.7722958284566731,3
12.992165360893482,-0.766234027791117,3
13.002167027837974,-0.7601830888243102,3
13.012168694782464,-0.7425945551691804,3
13.022170361726955,-0.7073560343007961,3
13.032172028671445,-0.6381139736801617,3
13.042173695615936,-0.5937557057683763,3
13.052175362560428,-0.516625573345597,3
13.062177029504918,-0.4489741404647398,3
13.07217869644941,-0.33557742527316303,3
13.0821803633939,-0.24919276764663176,3
13.09218203033839,-0.15630526677567724,3
13.10218369728288,-0.04441039578014895,3
13.112185364227372,0.056326077048049955,3
13.122187031171862,0.16900904917812815,3
13.132188698116353,0.2634810259431006,3
13.142190365060843,0.34953046652192793,3
13.152192032005335,0.4229286992090255,3
13.162193698949826,0.5202041820725501,3
13.172195365894316,0.5943487600367046,3
13.182197032838808,0.6564614679684987,3
13.192198699783297,0.7037791254044731,3
13.202200366727789,0.7454374677623042,3
13.212202033672279,0.763227107397643,3
13.22220370061677,0.7612535073174383,3
13.23220536756126,0.761643466772365,3
13.242207034505752,0.7615735718368303,3
13.252208701450241,0.7511907370196761,3
13.262210368394733,0.7181146146412742,3
13.272212035339225,0.6859896291003497,3
13.282213702283714,0.6301543650986693,3
13.292215369228206,0.5885724922925252,3
13.302217036172696,0.5352827102611347,3
13.312218703117187,0.4829566753554784,3
13.322220370061677,0.40473498072156466,3
13.332222037006169,0.3360350495231683,3
13.342223703950658,0.2905245548864877,3
13.35222537089515,0.2613007939577933,3
13.36222703783964,0.21040009030051082,3
13.372228704784131,0.17258704565756822,3
13.382230371728621,0.11016210831387682,3
13.392232038673113,0.08873395970312024,3
13.402233705617604,0.07466789411407439,3
13.412235372562094,0.04265673243499179,3
13.422237039506586,0.013659169601915827,3
13.432238706451075,0.004303280146882454,3
13.442240373395567,0.007461800422552891,3
13.452242040340057,0.0015772207852178964,3
13.462243707284548,-0.013271281209576666,3
13.472245374229038,0.005725868993828175,3
13.48224704117353,-0.019561519994025525,3
13.49224870811802,0.010518620492062652,3
13.502250375062511,-0.0007729026751204003,3
13.512252042007002,-0.008240560997668438,3
13.522253708951492,-0.021401133576864108,3
13.532255375895984,-0.04407810592177411,3
13.542257042840474,-0.06729307867579276,3
13.552258709784965,-0.0961545554915643,3
13.562260376729455,-0.11378860759477516,3
13.572262043673947,-0.17391424211800038,3
13.582263710618436,-0.2141512357198267,3
13.592265377562928,-0.25645504783495804,3
13.602267044507418,-0.3022885238071039,3
13.61226871145191,-0.3764355963953937,3
13.6222703783964,-0.4294337607973112,3
13.63227204534089,-0.47703334902837363,3
13.642273712285382,-0.5173022337081212,3
13.652275379229872,-0.6111767999551098,3
13.662277046174363,-0.6596073547704742,3
13.672278713118853,-0.694127793475576,3
13.682280380063345,-0.7049872877876759,3
13.692282047007835,-0.7458278088057353,3
13.702283713952326,-0.765440851084224,3
13.712285380896816,-0.7767989254724897,3
13.722287047841307,-0.7781802322069008,3
13.732288714785797,-0.7895935528361315,3
13.742290381730289,-0.7286317242916076,3
13.75229204867478,-0.6766927004626557,3
13.76229371561927,-0.6194609586799399,3
13.772295382563762,-0.5765863879739271,3
13.782297049508252,-0.4913442756072157,3
13.792298716452743,-0.40905921774681236,3
13.802300383397233,-0.32364049601240297,3
13.812302050341724,-0.24324385584540043,3
13.822303717286214,-0.14266747498328577,3
13.832305384230706,-0.03883909075033837,3
13.842307051175196,0.08100504312879801,3
13.852308718119687,0.172181882810157,3
13.862310385064179,0.27482833177774296,3
13.872312052008668,0.37620340338766833,3
13.88231371895316,0.45192431766063645,3
13.89231538589765,0.54723381912257,3
13.902317052842141,0.6029602208767453,3
13.912318719786631,0.6561048641486568,3
13.922320386731123,0.7146306054294091,3
13.932322053675612,0.7388071387692111,3
13.942323720620104,0.7652582277424851,3
13.952325387564594,0.7710007485456618,3
13.962327054509085,0.7761937812737493,3
13.972328721453577,0.7684024497034142,3
13.982330388398067,0.7373176090135938,3
13.992332055342558,0.7052928892260012,3
14.002333722287048,0.6758545488580868,3
14.01233538923154,0.6249857576825862,3
14.02233705617603,0.5832478734541359,3
14.032338723120521,0.5000682160879292,3
14.04234039006501,0.4579489054686508,3
14.052342057009502,0.40766729433127274,3
14.062343723953992,0.34337318675254624,3
14.072345390898484,0.289384153593304,3
14.082347057842973,0.24064309061663589,3
14.092348724787465,0.19741663703817613,3
14.102350391731957,0.1063544887412015,3
14.112352058676446,0.1162113266253934,3
14.122353725620938,0.0844645695810711,3
14.132355392565428,0.04912367893332811,3
14.14235705950992,0.04516035458924474,3
14.152358726454409,0.02833903435540279,3
14.1623603933989,0.013129149830937745,3
14.17236206034339,-0.0029953791048727184,3
14.182363727287882,0.001354127847471513,3
14.192365394232372,-0.006868224632690697,3
14.202367061176863,-0.007498097451089518,3
14.212368728121355,0.003959760269078519,3
14.222370395065845,-0.002021248650393224,3
14.232372062010336,-0.020951410737069884,3
14.242373728954826,-0.015888465743267664,3
14.252375395899318,-0.00930003918223482,3
14.262377062843807,-0.04175789154813474,3
14.272378729788299,-0.07090311623200687,3
14.282380396732789,-0.10919428102965759,3
14.29238206367728,-0.1296269090839846,3
14.30238373062177,-0.18228622718518192,3
14.312385397566262,-0.2200015635244025,3
14.322387064510753,-0.28226689958407036,3
14.332388731455243,-0.3242060922998314,3
14.342390398399735,-0.3696465212376775,3
14.352392065344224,-0.4268631377807148,3
14.362393732288716,-0.48154445527200473,3
14.372395399233206,-0.5539684035967177,3
14.382397066177697,-0.5974574787035821,3
14.392398733122187,-0.668722234702059,3
14.402400400066679,-0.6832407035677515,3
14.412402067011168,-0.7438929083206044,3
14.42240373395566,-0.7711437578387133,3
14.432405400900151,-0.7386106582191263,3
14.442407067844641,-0.7898308448492992,3
14.452408734789133,-0.7927013342911805,3
14.462410401733623,-0.7723508291237461,3
14.472412068678114,-0.7271323945625086,3
14.482413735622604,-0.6784255344855029,3
14.492415402567095,-0.6382879858694349,3
14.502417069511585,-0.5540042917984861,3
14.512418736456077,-0.5020695977235108,3
14.522420403400567,-0.40651262661108484,3
14.532422070345058,-0.3203588857742027,3
14.542423737289548,-0.2148734295291084,3
14.55242540423404,-0.10605871474724676,3
14.562427071178531,-0.005519857291065276,3
14.57242873812302,0.1075831983390762,3
14.582430405067512,0.21234294061075978,3
14.592432072012002,0.2921088994201405,3
14.602433738956494,0.3907316652216302,3
14.612435405900984,0.45410325590622763,3
14.622437072845475,0.5548062909770618,3
14.632438739789965,0.6110739453099464,3
14.642440406734456,0.6793441308888448,3
14.652442073678946,0.7179364589966934,3
14.662443740623438,0.7404194082557131,3
14.67244540756793,0.7835545555478023,3
14.68244707451242,0.7794849851999333,3
14.69244874145691,0.7797364640110843,3
14.7024504084014,0.7623867334173502,3
14.712452075345892,0.7259081008333451,3
14.722453742290382,0.6904410378795346,3
14.732455409234873,0.6699476340609615,3
14.742457076179363,0.6242930371209757,3
14.752458743123855,0.5633948677428717,3
14.762460410068345,0.5129828522965285,3
14.772462077012836,0.4380711317824652,3
14.782463743957328,0.387748891377212,3
14.792465410901817,0.329011392499296,3
14.802467077846309,0.2604328785935377,3
14.812468744790799,0.20643712914744256,3
14.82247041173529,0.17933535775258239,3
14.83247207867978,0.13746989326727999,3
14.842473745624272,0.12111890710164326,3
14.852475412568761,0.0721804744480854,3
14.862477079513253,0.04403067425421049,3
14.872478746457743,0.03490756105980517,3
14.882480413402234,0.015134727654298399,3
14.892482080346724,0.014196689060953907,3
14.902483747291216,0.0010000936210370543,3
14.912485414235707,-0.013077618862000385,3
14.922487081180197,-0.013830693361223355,3
14.932488748124689,0.010403939389863939,3
14.942490415069178,0.00696209744346992,3
14.95249208201367,-0.010312871427498708,3
14.96249374895816,-0.007825975136468771,3
14.972495415902651,-0.025496407094796232,3
14.982497082847141,-0.042579662756687835,3
14.992498749791633,-0.05274750687071459,3
15.002500416736122,-0.06004888816458652,3
15.012502083680614,-0.09725744036006659,3
15.022503750625106,-0.13941842953233882,3
15.032505417569595,-0.17416252000682722,3
15.042507084514087,-0.23907174290351013,3
15.052508751458577,-0.2759617026688819,3
15.062510418403068,-0.3179427203781799,3
15.072512085347558,-0.4003457994518073,3
15.08251375229205,-0.4393666842629714,3
15.09251541923654,-0.4924411436422899,3
15.102517086181031,-0.5391771429452081,3
15.11251875312552,-0.6192125730324304,3
15.122520420070012,-0.6655944799679121,3
15.132522087014504,-0.7038567289917863,3
15.142523753958994,-0.749370539706778,3
15.152525420903485,-0.7533620375758113,3
15.162527087847975,-0.7776331849276076,3
15.172528754792467,-0.7883109034257048,3
15.182530421736956,-0.7688252791001633,3
15.192532088681448,-0.7457766778326003,3
15.202533755625938,-0.7033295469823506,3
15.21253542257043,-0.6848703068955808,3
15.222537089514919,-0.6050006130242862,3
15.23253875645941,-0.5372138788351961,3
15.2425404234039,-0.46409946558019083,3
15.252542090348392,-0.3767848867018829,3
15.262543757292883,-0.3022901179847064,3
15.272545424237373,-0.20379381469320512,3
15.282547091181865,-0.09964256924196468,3
15.292548758126355,-0.0015951870286231937,3
15.302550425070846,0.12033082794581311,3
15.312552092015336,0.21799847936489708,3
15.322553758959828,0.3164237945008151,3
15.332555425904317,0.39844453503299987,3
15.342557092848809,0.4808215849004816,3
15.352558759793299,0.5661756568965146,3
15.36256042673779,0.6065512122610788,3
15.372562093682282,0.6777224875459608,3
15.382563760626772,0.7094816522092128,3
15.392565427571263,0.7470942172589897,3
15.402567094515753,0.7588052789378171,3
15.412568761460244,0.7851144660549859,3
15.422570428404734,0.7701079993310282,3
15.432572095349226,0.7682359451130129,3
15.442573762293716,0.7172405092006046,3
15.452575429238207,0.6976038666242822,3
15.462577096182697,0.6383889037264704,3
15.472578763127188,0.5962964896781693,3
15.48258043007168,0.5468382084365389,3
15.49258209701617,0.5020252709425207,3
15.502583763960661,0.4304189396971663,3
15.512585430905151,0.3807356469605462,3
15.522587097849643,0.3157939904663532,3
15.532588764794133,0.2655289997828818,3
15.542590431738624,0.22067590905802734,3
15.552592098683114,0.17019533756227706,3
15.562593765627605,0.1342088374152525,3
15.572595432572095,0.08239490776651043,3
15.582597099516587,0.07279974063517529,3
15.592598766461077,0.04638289245346693,3
15.602600433405568,0.03450255787631254,3
15.61260210035006,-0.0022901682512328977,3
15.62260376729455,0.03052237431613805,3
15.632605434239041,-0.005340819690796583,3
15.64260710118353,-0.01370064080353539,3
15.652608768128022,-0.0026045856086571832,3
15.662610435072512,-0.001492257146284674,3
15.672612102017004,0.01361547232325339,3
15.682613768961494,-0.011775467317289403,3
15.692615435905985,-0.004881584743511515,3
15.702617102850475,-0.022329039677020678,3
15.712618769794966,-0.028981819991918383,3
15.722620436739458,-0.05337192798361628,3
15.732622103683948,-0.08629182426609903,3
15.74262377062844,-0.11650405060386029,3
15.752625437572929,-0.15357314591556698,3
15.76262710451742,-0.18333402460492906,3
15.77262877146191,-0.24297406933523463,3
15.782630438406402,-0.309103637807365,3
15.792632105350892,-0.343714896111764,3
15.802633772295383,-0.4096396572959433,3
15.812635439239873,-0.44875927755088985,3
15.822637106184365,-0.5201665623177256,3
15.832638773128856,-0.5662421149770227,3
15.842640440073346,-0.6352044435567727,3
15.852642107017838,-0.6534319022192228,3
15.862643773962327,-0.7106619353651564,3
15.872645440906819,-0.7442803803458838,3
15.882647107851309,-0.7576759754640212,3
15.8926487747958,-0.7889730879976922,3
15.90265044174029,-0.7854585799213405,3
15.912652108684782,-0.7710684219547216,3
15.922653775629271,-0.7542792547516637,3
15.932655442573763,-0.7004114486296721,3
15.942657109518253,-0.6412120768234284,3
15.952658776462744,-0.5864038035850021,3
15.962660443407236,-0.5439730269274842,3
15.972662110351726,-0.4715690839968047,3
15.982663777296217,-0.3663184987422127,3
15.992665444240707,-0.2694889978323381,3
16.002667111185197,-0.16840656477660967,3
16.01266877812969,-0.07953633637401876,3
16.02267044507418,0.03775415946544675,3
16.03267211201867,0.13601191170694846,3
16.04267377896316,0.2311869974837172,3
16.052675445907653,0.33750563860347327,3
16.062677112852143,0.42711545366125325,3
16.072678779796632,0.48823995590035035,3
16.082680446741126,0.5897885659865624,3
16.092682113685616,0.6402485357772928,3
16.102683780630105,0.6854335422593594,3
16.112685447574595,0.7244766169369543,3
16.12268711451909,0.7663196168093038,3
16.132688781463578,0.7918356878586612,3
16.142690448408068,0.7746779683351233,3
16.152692115352558,0.7632879439996262,3
16.16269378229705,0.7498402474755814,3
16.17269544924154,0.7163290771409255,3
16.18269711618603,0.6871358207255481,3
16.192698783130524,0.6441920060812085,3
16.202700450075014,0.5947857010513983,3
16.212702117019504,0.530845877998832,3
16.222703783963993,0.47472211092310374,3
16.232705450908487,0.4237486247080894,3
16.242707117852976,0.36092454897042364,3
16.252708784797466,0.3066501619517366,3
16.262710451741956,0.25113861534799264,3
16.27271211868645,0.20109789291532068,3
16.28271378563094,0.17973802691456542,3
16.29271545257543,0.12446144713040025,3
16.302717119519922,0.09770073347971023,3
16.312718786464412,0.047065216469277305,3
16.322720453408902,0.03463765615742427,3
16.33272212035339,0.022268353437810934,3
16.342723787297885,0.010644666308773348,3
16.352725454242375,0.015198260211374307,3
16.362727121186865,0.018952195703766845,3
16.372728788131354,0.011923750578314397,3
16.382730455075848,-0.010698598007226298,3
16.392732122020337,-0.02151178676187634,3
16.402733788964827,-0.0035193319330124786,3
16.41273545590932,-0.0030734025348490525,3
16.42273712285381,-0.012243759725061374,3
16.4327387897983,-0.009307445463102866,3
16.44274045674279,-0.02935612272863254,3
16.452742123687283,-0.04596056819722114,3
16.462743790631773,-0.07368455529446416,3
16.472745457576263,-0.11103236592701102,3
16.482747124520753,-0.1624199315928251,3
16.492748791465246,-0.19036298826706266,3
16.502750458409736,-0.23113357304865256,3
16.512752125354226,-0.3027936919402138,3
16.522753792298715,-0.35976828519663334,3
16.53275545924321,-0.4210071759542366,3
16.5427571261877,-0.4729734392404503,3
16.55275879313219,-0.5259820105510694,3
16.56276046007668,-0.5587178954457778,3
16.57276212702117,-0.6359025644437128,3
16.58276379396566,-0.6828967590296012,3
16.59276546091015,-0.7269307475925315,3
16.602767127854644,-0.7512230832781035,3
16.612768794799134,-0.7574249011882215,3
16.622770461743624,-0.7717922424828013,3
16.632772128688114,-0.7889073735132752,3
16.642773795632607,-0.7599078374925891,3
16.652775462577097,-0.7503667427910642,3
16.662777129521587,-0.707817444591429,3
16.67277879646608,-0.6516402702798612,3
16.68278046341057,-0.5999419602829328,3
16.69278213035506,-0.5201204245780038,3
16.70278379729955,-0.4381704874623359,3
16.712785464244043,-0.36174061030894633,3
16.722787131188532,-0.2504667220721215,3
16.732788798133022,-0.15011830203600243,3
16.742790465077512,-0.051984529118662415,3
16.752792132022005,0.05192311686820644,3
16.762793798966495,0.18024673296577687,3
16.772795465910985,0.2662505366159543,3
16.782797132855478,0.3377430177093399,3
16.792798799799968,0.44474139874962665,3
16.802800466744458,0.5148465294586407,3
16.812802133688947,0.5814049324390271,3
16.82280380063344,0.6553061045556343,3
16.83280546757793,0.7110639572288932,3
16.84280713452242,0.7623744689822397,3
16.85280880146691,0.767041607584609,3
16.862810468411404,0.7542112871646857,3
16.872812135355893,0.7705730696871281,3
16.882813802300383,0.7757671562551303,3
16.892815469244876,0.739636683941746,3
16.902817136189366,0.7188736978713112,3
16.912818803133856,0.6752847845130738,3
16.922820470078346,0.6334447843044847,3
16.93282213702284,0.5912814428848255,3
16.94282380396733,0.5338518454866077,3
16.95282547091182,0.4793440229546243,3
16.96282713785631,0.41421260845881674,3
16.972828804800802,0.36330571689813557,3
16.98283047174529,0.29660639126927507,3
16.99283213868978,0.2470441614043765,3
17.002833805634275,0.19342196647187082,3
17.012835472578764,0.15466786576731745,3
17.022837139523254,0.12004494792069811,3
17.032838806467744,0.09353467918984586,3
17.042840473412237,0.06112392058820397,3
17.052842140356727,0.03596849048504065,3
17.062843807301217,-0.004478512951382286,3
17.072845474245707,0.008129207925108206,3
17.0828471411902,0.004261811362590753,3
17.09284880813469,0.017392752197819727,3
17.10285047507918,-0.00898176304660809,3
17.112852142023673,0.011199300811672742,3
17.122853808968163,0.004352259651769947,3
17.132855475912653,-0.0024981906227510287,3
17.142857142857142,-0.008974277063559322,3
17.152858809801636,-0.00794808131072331,3
17.162860476746125,-0.03303883530518375,3
17.172862143690615,-0.05462290242936914,3
17.182863810635105,-0.06400879794086002,3
17.1928654775796,-0.09523984860716359,3
17.202867144524088,-0.1216826228338372,3
17.212868811468578,-0.14088825753450895,3
17.222870478413068,-0.18922284963793742,3
17.23287214535756,-0.25593201838854673,3
17.24287381230205,-0.3225553903473136,3
17.25287547924654,-0.3836041933928965,3
17.262877146191034,-0.44238745109524474,3
17.272878813135524,-0.49259407109778486,3
17.282880480080014,-0.5545615221928695,3
17.292882147024503,-0.5832881789537684,3
17.302883813968997,-0.6502859653695078,3
17.312885480913486,-0.6828510293775639,3
17.322887147857976,-0.724345986325045,3
17.332888814802466,-0.7557178384348308,3
17.34289048174696,-0.7647450656812511,3
17.35289214869145,-0.7882302727203235,3
17.36289381563594,-0.794776329469796,3
17.372895482580432,-0.748135236024666,3
17.382897149524922,-0.7306896779967239,3
17.392898816469412,-0.6882931835354026,3
17.4029004834139,-0.6336950920241784,3
17.412902150358395,-0.5732275522430206,3
17.422903817302885,-0.5048488517723693,3
17.432905484247375,-0.42431236192230853,3
17.442907151191864,-0.3287056672128381,3
17.452908818136358,-0.2416039657260127,3
17.462910485080847,-0.1352492344413777,3
17.472912152025337,-0.042628986336763555,3
17.48291381896983,0.06712020432841147,3
17.49291548591432,0.18697534266760912,3
17.50291715285881,0.2949303045442793,3
17.5129188198033,0.36551522418187876,3
17.522920486747793,0.45523366727580605,3
17.532922153692283,0.52320102003353,3
17.542923820636773,0.6004168446961061,3
17.552925487581263,0.656544244399501,3
17.562927154525756,0.7123434058874422,3
17.572928821470246,0.7488590889533024,3
17.582930488414735,0.77074654122124,3
17.59293215535923,0.7691338059404275,3
17.60293382230372,0.7751414253366741,3
17.61293548924821,0.7762789985190257,3
17.622937156192698,0.7549634326975322,3
17.63293882313719,0.7011383913269601,3
17.64294049008168,0.6872887335145251,3
17.65294215702617,0.6262071758534397,3
17.66294382397066,0.5890165095753179,3
17.672945490915154,0.5169252731328678,3
17.682947157859644,0.4728819154994853,3
17.692948824804134,0.4006179659555828,3
17.702950491748627,0.3565358199142375,3
17.712952158693117,0.2990995548126068,3
17.722953825637607,0.24008913816645414,3
17.732955492582096,0.19584177783030016,3
17.74295715952659,0.15623289111041205,3
17.75295882647108,0.1093408022050363,3
17.76296049341557,0.07071130447047265,3
17.77296216036006,0.05859305316342033,3
17.782963827304552,0.028670455569066635,3
17.792965494249042,0.005790965801137478,3
17.802967161193532,0.028522837620803793,3
17.812968828138025,0.0027026002965708108,3
17.822970495082515,0.018964846022317034,3
17.832972162027005,0.0018948809620508756,3
17.842973828971495,0.0040015141722251945,3
17.852975495915988,-0.020210691080934907,3
17.862977162860478,0.007322278525257462,3
17.872978829804968,-0.017442130244014642,3
17.882980496749457,-0.006930607359696619,3
17.89298216369395,-0.018851331625670403,3
17.90298383063844,-0.039866205829894204,3
17.91298549758293,-0.06927215046624191,3
17.92298716452742,-0.10388601023445468,3
17.932988831471913,-0.12477234583010888,3
17.942990498416403,-0.1729113753326758,3
17.952992165360893,-0.21304995964468404,3
17.962993832305386,-0.27585015335445956,3
17.972995499249876,-0.31444165006966307,3
17.982997166194366,-0.37560531298020877,3
17.992998833138856,-0.4557295629394954,3
18.00300050008335,-0.4961693408927721,3
18.01300216702784,-0.5530128537070325,3
18.02300383397233,-0.6023976068403727,3
18.03300550091682,-0.6718660248623117,3
18.04300716786131,-0.6926486230515732,3
18.0530088348058,-0.7332472910518142,3
18.06301050175029,-0.7536685064297189,3
18.073012168694785,-0.7733112324574569,3
18.083013835639274,-0.8055622853195179,3
18.093015502583764,-0.7609664888174617,3
18.103017169528254,-0.7612415927527819,3
18.113018836472747,-0.7332443532260823,3
18.123020503417237,-0.676392909435503,3
18.133022170361727,-0.635468346699309,3
18.143023837306217,-0.5725593527871939,3
18.15302550425071,-0.4927693540798808,3
18.1630271711952,-0.41358013421682205,3
18.17302883813969,-0.30045243482986006,3
18.183030505084183,-0.20297609673644143,3
18.193032172028673,-0.13191144906621144,3
18.203033838973163,-0.006523319870831971,3
18.213035505917652,0.07828119165712083,3
18.223037172862146,0.18604965608428017,3
18.233038839806635,0.3002221795700354,3
18.243040506751125,0.38341999898780416,3
18.253042173695615,0.46707009836996,3
18.26304384064011,0.541949367790566,3
18.273045507584598,0.6162463919770175,3
18.283047174529088,0.6513352902249909,3
18.29304884147358,0.7063572300815172,3
18.30305050841807,0.7427783937021132,3
18.31305217536256,0.7692098626928795,3
18.32305384230705,0.7912431687551383,3
18.333055509251544,0.7883372462833919,3
18.343057176196034,0.7595391504530982,3
18.353058843140523,0.742837775873407,3
18.363060510085013,0.6929525731918306,3
18.373062177029507,0.6458242714773387,3
18.383063843973996,0.6178738769905473,3
18.393065510918486,0.5633902951997007,3
18.40306717786298,0.5160703648444316,3
18.41306884480747,0.4406975792801368,3
18.42307051175196,0.3740928812984205,3
18.43307217869645,0.33607881830103115,3
18.443073845640942,0.2866141793263897,3
18.453075512585432,0.2261180516442153,3
18.463077179529922,0.17330848429188805,3
18.47307884647441,0.13380977568322594,3
18.483080513418905,0.1096889677243845,3
18.493082180363395,0.08298528968650316,3
18.503083847307884,0.04866373146415152,3
18.513085514252378,0.03492427014286191,3
18.523087181196868,0.011723633388103488,3
18.533088848141357,0.005861760689306435,3
18.543090515085847,0.011065062985612792,3
18.55309218203034,0.002405030891636372,3
18.56309384897483,-0.0075278913426194425,3
18.57309551591932,-0.005788517917294584,3
18.58309718286381,-0.005984094469829799,3
18.593098849808303,-0.007689807841558663,3
18.603100516752793,0.018302585039043952,3
18.613102183697283,-0.03218809035092178,3
18.623103850641776,-0.031163651507230473,3
18.633105517586266,-0.03942232234168802,3
18.643107184530756,-0.08343398416942815,3
18.653108851475245,-0.0901948689556256,3
18.66311051841974,-0.1320408238441714,3
18.67311218536423,-0.1722687465482325,3
18.68311385230872,-0.2303218373049912,3
18.693115519253208,-0.2852191190556266,3
18.7031171861977,-0.3359841143274977,3
18.71311885314219,-0.3950847356136537,3
18.72312052008668,-0.4507926732326513,3
18.73312218703117,-0.49529575651775265,3
18.743123853975664,-0.5663258871580232,3
18.753125520920154,-0.6107540022987417,3
18.763127187864644,-0.666536450802608,3
18.773128854809137,-0.716544355062507,3
18.783130521753627,-0.7478802807228871,3
18.793132188698117,-0.7706605340320684,3
18.803133855642606,-0.7599225216364001,3
18.8131355225871,-0.7848765025897766,3
18.82313718953159,-0.75797877505193,3
18.83313885647608,-0.74995892951642,3
18.84314052342057,-0.7370509649996173,3
18.853142190365062,-0.6748031229654239,3
18.863143857309552,-0.6247237380582165,3
18.873145524254042,-0.54909245762098,3
18.883147191198535,-0.46611381271521896,3
18.893148858143025,-0.4097637495499839,3
18.903150525087515,-0.29623886745911676,3
18.913152192032005,-0.20832081779737588,3
18.923153858976498,-0.1011053407680579,3
18.933155525920988,0.01456783403048928,3
18.943157192865478,0.09911382496965873,3
18.953158859809967,0.19844807746331217,3
18.96316052675446,0.3036883917162012,3
18.97316219369895,0.41473733077321934,3
18.98316386064344,0.4866992550357246,3
18.993165527587934,0.5580991235341285,3
19.003167194532423,0.6187725676852824,3
19.013168861476913,0.692294891473402,3
19.023170528421403,0.7212157660753208,3
19.033172195365896,0.7610230458067988,3
19.043173862310386,0.772553380537519,3
19.053175529254876,0.7908277703128526,3
19.063177196199366,0.7807368069781249,3
19.07317886314386,0.777946955381836,3
19.08318053008835,0.7353397551705527,3
19.09318219703284,0.7087684860865164,3
19.103183863977332,0.6717517307901287,3
19.11318553092182,0.6093286037958814,3
19.12318719786631,0.5532751169814739,3
19.1331888648108,0.4939880582296391,3
19.143190531755295,0.43108131620637097,3
19.153192198699784,0.3818114868832134,3
19.163193865644274,0.34275921553050215,3
19.173195532588764,0.2730112554978128,3
19.183197199533257,0.2220069934995157,3
19.193198866477747,0.17212265673854396,3
19.203200533422237,0.14335725765359414,3
19.21320220036673,0.07988040329731945,3
19.22320386731122,0.05798910253818921,3
19.23320553425571,0.04278393295636712,3
19.2432072012002,0.030700097858273184,3
19.253208868144693,0.024598686314973826,3
19.263210535089183,-0.005378982875412367,3
19.273212202033672,-0.01079072314385554,3
19.283213868978162,0.002432628080866292,3
19.293215535922656,-0.0036309030817418654,3
19.303217202867145,-0.006633771120448913,3
19.313218869811635,-0.01991640201111867,3
19.32322053675613,0.005267366608149566,3
19.33322220370062,-0.011980332751356541,3
19.343223870645108,-0.028946544533923382,3
19.353225537589598,-0.055460428287597396,3
19.36322720453409,-0.04088573203919156,3
19.37322887147858,-0.06453654617608034,3
19.38323053842307,-0.10656290629682931,3
19.39323220536756,-0.13491939007765102,3
19.403233872312054,-0.1990983248872801,3
19.413235539256544,-0.2219020439215783,3
19.423237206201033,-0.2744173774418938,3
19.433238873145523,-0.3486290213923791,3
19.443240540090017,-0.3968090860792238,3
19.453242207034506,-0.46576831300362403,3
19.463243873978996,-0.5203271280753479,3
19.47324554092349,-0.5682477560504315,3
19.48324720786798,-0.628809888699606,3
19.49324887481247,-0.6467028491205714,3
19.50325054175696,-0.7138499467227958,3
19.513252208701452,-0.7321607717510136,3
19.523253875645942,-0.7549281655113939,3
19.53325554259043,-0.7777232422020585,3
19.54325720953492,-0.7504766678606638,3
19.553258876479415,-0.7562460423820829,3
19.563260543423905,-0.7344947281383998,3
19.573262210368394,-0.6954424993924339,3
19.583263877312888,-0.6617525292931528,3
19.593265544257378,-0.5994974120754443,3
19.603267211201867,-0.5442152484536846,3
19.613268878146357,-0.45975881870045676,3
19.62327054509085,-0.3508679125403173,3
19.63327221203534,-0.2882431941710162,3
19.64327387897983,-0.16589709472375236,3
19.65327554592432,-0.07466762610016661,3
19.663277212868813,0.016289913519362063,3
19.673278879813303,0.12019320226474633,3
19.683280546757793,0.22895937873902658,3
19.693282213702286,0.34453971001727796,3
19.703283880646776,0.40980708786145537,3
19.713285547591266,0.4933754355061318,3
19.723287214535755,0.5650568918386492,3
19.73328888148025,0.6247226951099463,3
19.74329054842474,0.6835317496020785,3
19.75329221536923,0.7344249968576093,3
19.763293882313718,0.758393213519209,3
19.77329554925821,0.7766196932681287,3
19.7832972162027,0.7775233494944052,3
19.79329888314719,0.7812044749941135,3
19.803300550091684,0.74649281161304,3
19.813302217036174,0.7326959944817915,3
19.823303883980664,0.6921142685433244,3
19.833305550925154,0.6510120077733021,3
19.843307217869647,0.5924045539012045,3
19.853308884814137,0.5389549637305688,3
19.863310551758627,0.46332157839151217,3
19.873312218703116,0.44422995547471533,3
19.88331388564761,0.36425120614735007,3
19.8933155525921,0.32469263119952607,3
19.90331721953659,0.2600698090811935,3
19.913318886481083,0.21251698454388315,3
19.923320553425572,0.16933928065273415,3
19.933322220370062,0.13246242052366367,3
19.943323887314552,0.09639903469127564,3
19.953325554259045,0.07165323988749794,3
19.963327221203535,0.023718735851477067,3
19.973328888148025,0.02594145931080873,3
19.983330555092515,0.0005092356463527754,3
19.993332222037008,-0.004630030034528859,3
20.003333888981498,0.00912892979311055,3
20.013335555925988,0.002065836964727961,3
20.02333722287048,-0.025741710457215464,3
20.03333888981497,-0.01071783923082551,3
20.04334055675946,-0.007343160086616894,3
20.05334222370395,0.003330204525906881,3
20.063343890648444,0.009486329923635461,3
20.073345557592933,-0.01738324773810067,3
20.083347224537423,-0.046089921263841975,3
20.093348891481913,-0.04362346561633384,3
20.103350558426406,-0.08329888324954322,3
20.113352225370896,-0.13726524008620777,3
20.123353892315386,-0.14150915363263444,3
20.133355559259876,-0.1775652987405546,3
20.14335722620437,-0.2301226903511229,3
20.15335889314886,-0.29497049841944345,3
20.16336056009335,-0.3561840390228021,3
20.173362227037842,-0.4122185129475521,3
20.18336389398233,-0.47775510620438144,3
20.19336556092682,-0.5209721857907321,3
20.20336722787131,-0.5799676689128619,3
20.213368894815805,-0.6351995024985025,3
20.223370561760294,-0.6712793938427303,3
20.233372228704784,-0.7279498933969276,3
20.243373895649274,-0.7547259495859028,3
20.253375562593767,-0.770315604546894,3
20.263377229538257,-0.7897001240453522,3
20.273378896482747,-0.773208553198199,3
20.28338056342724,-0.7810510766938998,3
20.29338223037173,-0.7334792683099515,3
20.30338389731622,-0.7009041572417265,3
20.31338556426071,-0.6558639102069347,3
20.323387231205203,-0.6038281683052896,3
20.333388898149693,-0.5164523793844795,3
20.343390565094182,-0.44480163838133135,3
20.353392232038672,-0.3627553787857324,3
20.363393898983166,-0.24853096612900138,3
20.373395565927655,-0.16832570958200205,3
20.383397232872145,-0.058151816923147734,3
20.39339889981664,0.03312567826672787,3
20.40340056676113,0.14711758630110267,3
20.413402233705618,0.24695026475292473,3
20.423403900650108,0.3400984657099015,3
20.4334055675946,0.434050312889679,3
20.44340723453909,0.5024503957145209,3
20.45340890148358,0.5919462698894505,3
20.46341056842807,0.6539426372891186,3
20.473412235372564,0.7156583107726572,3
20.483413902317054,0.7369755278937631,3
20.493415569261543,0.764324040982815,3
20.503417236206037,0.7842353929293772,3
20.513418903150527,0.7858813719711721,3
20.523420570095016,0.7636805118243135,3
20.533422237039506,0.7519288296177312,3
20.543423903984,0.7277605677830922,3
20.55342557092849,0.6914249853399752,3
20.56342723787298,0.6399313903669258,3
20.57342890481747,0.5825290367629606,3
20.583430571761962,0.5267077626423671,3
20.593432238706452,0.4757520900837002,3
20.60343390565094,0.40999388272173265,3
20.613435572595435,0.35519583412601574,3
20.623437239539925,0.30617961789900405,3
20.633438906484415,0.2448798107487495,3
20.643440573428904,0.2096194624067356,3
20.653442240373398,0.15215046222626938,3
20.663443907317887,0.12875296994137372,3
20.673445574262377,0.09610579092929304,3
20.683447241206867,0.05182112444190018,3
20.69344890815136,0.05476356404825024,3
20.70345057509585,0.027213986905954855,3
20.71345224204034,-0.013982060459649517,3
20.723453908984833,-0.01855756192400529,3
20.733455575929323,0.007289515950631698,3
20.743457242873813,-0.012643343455073673,3
20.753458909818303,-0.0048362189093142365,3
20.763460576762796,-0.009201340672616723,3
20.773462243707286,0.008432666181697865,3
20.783463910651776,-0.0034563995254896836,3
20.793465577596265,0.006015562759601061,3
20.80346724454076,-0.04046843031064652,3
20.81346891148525,-0.034361113582420125,3
20.82347057842974,-0.05238346502513267,3
20.83347224537423,-0.07509801816432908,3
20.84347391231872,-0.12666458716762063,3
20.85347557926321,-0.16874047355630478,3
20.8634772462077,-0.1938473066717759,3
20.873478913152194,-0.2672081680689129,3
20.883480580096684,-0.30676377654636894,3
20.893482247041174,-0.37009227683889345,3
20.903483913985664,-0.4163459346611221,3
20.913485580930157,-0.5060782577671987,3
20.923487247874647,-0.5558394996409413,3
20.933488914819137,-0.6022523236837614,3
20.943490581763626,-0.6352104057689227,3
20.95349224870812,-0.6833138651089651,3
20.96349391565261,-0.694910412840843,3
20.9734955825971,-0.7486950608031963,3
20.983497249541593,-0.7673414681901235,3
20.993498916486082,-0.778160225296844,3
21.003500583430572,-0.7656736361975243,3
21.013502250375062,-0.7657218108950511,3
21.023503917319555,-0.7298948700480574,3
21.033505584264045,-0.6844905098684219,3
21.043507251208535,-0.6340706229890981,3
21.053508918153025,-0.5887952192932492,3
21.063510585097518,-0.5161381681192205,3
21.073512252042008,-0.43153154352380174,3
21.083513918986498,-0.3334952846384357,3
21.09351558593099,-0.24920538104584514,3
21.10351725287548,-0.15336273445975765,3
21.11351891981997,-0.025415424050095857,3
21.12352058676446,0.07880781232015219,3
21.133522253708954,0.16634594077607845,3
21.143523920653443,0.2478693330238766,3
21.153525587597933,0.37073392956375417,3
21.163527254542423,0.4585048902982688,3
21.173528921486916,0.5180523791615461,3
21.183530588431406,0.5828189183597061,3
21.193532255375896,0.6574430286478646,3
21.20353392232039,0.6964185374816978,3
21.21353558926488,0.7563052923106609,3
21.22353725620937,0.7679868468568617,3
21.23353892315386,0.7725748550798244,3
21.243540590098352,0.7879331538831014,3
21.25354225704284,0.7499121862043231,3
21.26354392398733,0.748605778872679,3
21.27354559093182,0.7216654862779409,3
21.283547257876315,0.6682301070618055,3
21.293548924820804,0.6253869069372928,3
21.303550591765294,0.5909476872606919,3
21.313552258709787,0.496834616864137,3
21.323553925654277,0.48432319870423773,3
21.333555592598767,0.40597252708660275,3
21.343557259543257,0.3431628612944093,3
21.35355892648775,0.2856545641185226,3
21.36356059343224,0.2386213857868357,3
21.37356226037673,0.22101923394610404,3
21.38356392732122,0.15542051556119985,3
21.393565594265713,0.10035390009408442,3
21.403567261210203,0.08150751581577048,3
21.413568928154692,0.05215692803495872,3
21.423570595099186,0.02582128602763445,3
21.433572262043675,-0.011793922918960469,3
21.443573928988165,0.006129196306615327,3
21.453575595932655,-0.009645452595054206,3
21.46357726287715,-0.011957192333601901,3
21.473578929821638,-0.004664373263692551,3
21.483580596766128,-0.012367083802773104,3
21.493582263710618,-0.01839706738757573,3
21.50358393065511,-0.0066379054424368115,3
21.5135855975996,-0.0012453299939864312,3
21.52358726454409,-0.010302784634972754,3
21.533588931488584,-0.02080918488274184,3
21.543590598433074,-0.03333866461627943,3
21.553592265377564,-0.05650077479733667,3
21.563593932322053,-0.0935809736428433,3
21.573595599266547,-0.13509271538013043,3
21.583597266211036,-0.1472553920709359,3
21.593598933155526,-0.21147263435280408,3
21.603600600100016,-0.25952580264501296,3
21.61360226704451,-0.3422421120352015,3
21.623603933989,-0.3612597221626622,3
21.63360560093349,-0.4340296288721678,3
21.64360726787798,-0.4954180728347233,3
21.653608934822472,-0.5577166161308893,3
21.663610601766962,-0.6144654733737843,3
21.67361226871145,-0.6493176653932238,3
21.683613935655945,-0.7014342258589379,3
21.693615602600435,-0.73584891695237,3
21.703617269544925,-0.7379836443475052,3
21.713618936489414,-0.7787727525608998,3
21.723620603433908,-0.7778266891794421,3
21.733622270378397,-0.7871092917726407,3
21.743623937322887,-0.7440014989884537,3
21.753625604267377,-0.7185362100761301,3
21.76362727121187,-0.6854518219367258,3
21.77362893815636,-0.6191594821449691,3
21.78363060510085,-0.5721997418673349,3
21.793632272045343,-0.4907161779555622,3
21.803633938989833,-0.43370255873663255,3
21.813635605934323,-0.32595666648823113,3
21.823637272878813,-0.21759982226173014,3
21.833638939823306,-0.1210619750669252,3
21.843640606767796,-0.015743109954944042,3
21.853642273712286,0.07275911773295224,3
21.863643940656775,0.20114557096875862,3
21.87364560760127,0.2968891210417418,3
21.88364727454576,0.3798578564401283,3
21.893648941490248,0.4649193485972718,3
21.90365060843474,0.5501099421107899,3
21.91365227537923,0.6143693516438443,3
21.92365394232372,0.6667352924143198,3
21.93365560926821,0.7116958512783179,3
21.943657276212704,0.7553044218445382,3
21.953658943157194,0.7736714225367154,3
21.963660610101684,0.7930745987286563,3
21.973662277046174,0.7647632301767296,3
21.983663943990667,0.757852468957616,3
21.993665610935157,0.7418334803098762,3
22.003667277879646,0.6948060194183177,3
22.01366894482414,0.6623523528303842,3
22.02367061176863,0.6255372867556666,3
22.03367227871312,0.5542493337221163,3
22.04367394565761,0.5079206047467884,3
22.053675612602103,0.43687373557427156,3
22.063677279546592,0.40842414954814166,3
22.073678946491082,0.3462055393917029,3
22.083680613435572,0.28225994336774246,3
22.093682280380065,0.2571762362051323,3
22.103683947324555,0.20176962295408246,3
22.113685614269045,0.14400579635656865,3
22.123687281213538,0.08547901657825632,3
22.133688948158028,0.08398215006596059,3
22.143690615102518,0.04965698429013505,3
22.153692282047007,0.027984864827193326,3
22.1636939489915,0.01848467124430448,3
22.17369561593599,0.02961703826477513,3
22.18369728288048,0.006475273797708855,3
22.19369894982497,0.015820877582260504,3
22.203700616769463,0.01734360842314771,3
22.213702283713953,0.0019721983351812782,3
22.223703950658443,-0.013682126649874471,3
22.233705617602936,-0.015204256517365091,3
22.243707284547426,-0.013071769620625447,3
22.253708951491916,-0.0073732811601073,3
22.263710618436406,-0.03607858586344403,3
22.2737122853809,-0.05829751370069337,3
22.28371395232539,-0.08108852830051214,3
22.29371561926988,-0.0954725641592317,3
22.30371728621437,-0.1384980365415224,3
22.313718953158862,-0.1679420184773835,3
22.32372062010335,-0.2273151793865686,3
22.33372228704784,-0.2716244260162651,3
22.34372395399233,-0.3344558141062017,3
22.353725620936824,-0.41109463590350304,3
22.363727287881314,-0.437725504719985,3
22.373728954825804,-0.5110630964736876,3
22.383730621770297,-0.5605593045859315,3
22.393732288714787,-0.6176088740772085,3
22.403733955659277,-0.6515533139786492,3
22.413735622603767,-0.7083036448176744,3
22.42373728954826,-0.7413285225170839,3
22.43373895649275,-0.7586392038839956,3
22.44374062343724,-0.7869963066192767,3
22.45374229038173,-0.777137750262113,3
22.463743957326223,-0.7747026924420982,3
22.473745624270713,-0.7370544230034753,3
22.483747291215202,-0.7014337277589482,3
22.493748958159696,-0.6818899571323568,3
22.503750625104185,-0.6349219230728949,3
22.513752292048675,-0.5518377669887033,3
22.523753958993165,-0.4600260531695992,3
22.53375562593766,-0.39485323484635876,3
22.543757292882148,-0.2853454474383521,3
22.553758959826638,-0.19614145807587674,3
22.563760626771128,-0.10470366617910976,3
22.57376229371562,0.021563207510729723,3
22.58376396066011,0.12469135183342228,3
22.5937656276046,0.20534729208128236,3
22.603767294549094,0.28755332118222204,3
22.613768961493584,0.3762090202213571,3
22.623770628438074,0.48557100153611193,3
22.633772295382563,0.5642231166798514,3
22.643773962327057,0.6163913778349631,3
22.653775629271546,0.6804367364420416,3
22.663777296216036,0.700019206449418,3
22.673778963160526,0.7521610805262278,3
22.68378063010502,0.7949120804220171,3
22.69378229704951,0.7961668372384526,3
22.703783963994,0.77359135127583,3
22.713785630938492,0.7642085987061769,3
22.723787297882982,0.7278379719393266,3
22.733788964827472,0.6908310294070381,3
22.74379063177196,0.6570998621237952,3
22.753792298716455,0.6021328435771742,3
22.763793965660945,0.5545200426943528,3
22.773795632605434,0.4951043457212403,3
22.783797299549924,0.441011556748003,3
22.793798966494418,0.36960849649742294,3
22.803800633438907,0.3122292316830592,3
22.813802300383397,0.2670365491946251,3
22.82380396732789,0.22250843503556575,3
22.83380563427238,0.18809047049252384,3
22.84380730121687,0.14748837136776155,3
22.85380896816136,0.1048258017335583,3
22.863810635105853,0.08240058469633477,3
22.873812302050343,0.057129918429430535,3
22.883813968994833,0.03633876019369692,3
22.893815635939323,0.004978748600802144,3
22.903817302883816,0.01561847576166316,3
22.913818969828306,0.013882246674254313,3
22.923820636772795,0.0028622290815388564,3
22.93382230371729,-0.006881344812419301,3
22.94382397066178,-0.005427040732839207,3
22.95382563760627,-0.002763350048720146,3
22.963827304550758,-0.008487775443491937,3
22.97382897149525,-0.008046841756209337,3
22.98383063843974,-0.008578348390994334,3
22.99383230538423,-0.031123368308021288,3
23.00383397232872,-0.05563878986475497,3
23.013835639273214,-0.07146505071343638,3
23.023837306217704,-0.11112167578782914,3
23.033838973162194,-0.13916375675030462,3
23.043840640106687,-0.20080831417070827,3
23.053842307051177,-0.2275546103965705,3
23.063843973995667,-0.2846926356345385,3
23.073845640940156,-0.3452022409035069,3
23.08384730788465,-0.39837473743209134,3
23.09384897482914,-0.458558324981523,3
23.10385064177363,-0.5195740876575762,3
23.11385230871812,-0.5514492540286515,3
23.123853975662612,-0.6468888835306197,3
23.133855642607102,-0.663898230977751,3
23.143857309551592,-0.7120302396752274,3
23.153858976496082,-0.7299892875765247,3
23.163860643440575,-0.769833455892605,3
23.173862310385065,-0.7619399327401786,3
23.183863977329555,-0.7656304997438623,3
23.193865644274048,-0.7638282077534869,3
23.203867311218538,-0.7443178458664681,3
23.213868978163028,-0.7081138092163791,3
23.223870645107517,-0.6542872233307193,3
23.23387231205201,-0.6168113386759134,3
23.2438739789965,-0.5321008232201584,3
23.25387564594099,-0.4658575816491532,3
23.26387731288548,-0.3736862093349343,3
23.273878979829973,-0.29567164589254774,3
23.283880646774463,-0.18508408165367188,3
23.293882313718953,-0.07184120555845208,3
23.303883980663446,0.03499153585867968,3
23.313885647607936,0.12691445513593624,3
23.323887314552426,0.2171975527789909,3
23.333888981496916,0.3275801181388642,3
23.34389064844141,0.4251496865454726,3
23.3538923153859,0.4981735215706303,3
23.36389398233039,0.5717523165596754,3
23.37389564927488,0.6349788611669023,3
23.38389731621937,0.6787956188016442,3
23.39389898316386,0.7351565353247967,3
23.40390065010835,0.7568220666912432,3
23.413902317052845,0.7847707754153048,3
23.423903983997334,0.7706382951524355,3
23.433905650941824,0.7947222950925428,3
23.443907317886314,0.7590267864972564,3
23.453908984830807,0.7214998974981738,3
23.463910651775297,0.683115305247615,3
23.473912318719787,0.6351498524108856,3
23.483913985664277,0.6017126402618966,3
23.49391565260877,0.5429286222817834,3
23.50391731955326,0.4721862755662665,3
23.51391898649775,0.44390896840752586,3
23.523920653442243,0.3581867225645137,3
23.533922320386733,0.313068275156866,3
23.543923987331222,0.2537363352422899,3
23.553925654275712,0.2261838311546136,3
23.563927321220206,0.17243251069149668,3
23.573928988164695,0.12215704177300947,3
23.583930655109185,0.10432015253062338,3
23.593932322053675,0.05889681251514786,3
23.60393398899817,0.04222224644123051,3
23.613935655942658,0.018025713772931336,3
23.623937322887148,0.016853996508236897,3
23.63393898983164,-0.010610559710184729,3
23.64394065677613,-0.0050695893312017294,3
23.65394232372062,0.011666643189555997,3
23.66394399066511,0.01831767751849137,3
23.673945657609604,-0.0009328457740037793,3
23.683947324554094,-0.012652426209796154,3
23.693948991498583,-0.01742621652652535,3
23.703950658443073,-0.016697963162679554,3
23.713952325387567,-0.010807704903536827,3
23.723953992332056,-0.04970648543329264,3
23.733955659276546,-0.06296392493028588,3
23.74395732622104,-0.07663721254750866,3
23.75395899316553,-0.11121144837368713,3
23.76396066011002,-0.1355306023687436,3
23.77396232705451,-0.18463357314384202,3
23.783963993999002,-0.22324666128629106,3
23.793965660943492,-0.3006329415898321,3
23.80396732788798,-0.35073844471746984,3
23.81396899483247,-0.41503400050864314,3
23.823970661776965,-0.47305448108797976,3
23.833972328721455,-0.5390798621926287,3
23.843973995665944,-0.5978986316161624,3
23.853975662610434,-0.6425904084843477,3
23.863977329554928,-0.685358980001659,3
23.873978996499417,-0.7128759928738194,3
23.883980663443907,-0.7477361524043605,3
23.8939823303884,-0.7733697424472519,3
23.90398399733289,-0.7793103948060043,3
23.91398566427738,-0.7605268555053981,3
23.92398733122187,-0.7703417918881902,3
23.933988998166363,-0.7423068724980402,3
23.943990665110853,-0.6888798517872483,3
23.953992332055343,-0.6569547051131112,3
23.963993998999833,-0.5903690730898358,3
23.973995665944326,-0.5163534700370759,3
23.983997332888816,-0.4326877088850038,3
23.993998999833305,-0.34168823127866027,3
24.0040006667778,-0.260807111953836,3
24.01400233372229,-0.15566166907887657,3
24.02400400066678,-0.05039446458863327,3
24.034005667611268,0.039060301438563746,3
24.04400733455576,0.13138693801600013,3
24.05400900150025,0.23142373740814626,3
24.06401066844474,0.33170632206155876,3
24.07401233538923,0.4390704885679772,3
24.084014002333724,0.5105729776317691,3
24.094015669278214,0.5888540845152304,3
24.104017336222704,0.6517312704124465,3
24.114019003167197,0.6975728133758887,3
24.124020670111687,0.7280163120824826,3
24.134022337056177,0.7611439064973233,3
24.144024004000666,0.7902360976765506,3
24.15402567094516,0.7819213825336055,3
24.16402733788965,0.7789414629719567,3
24.17402900483414,0.7619409185723696,3
24.18403067177863,0.7341090377335703,3
24.194032338723122,0.6704206798112583,3
24.204034005667612,0.6417182837852402,3
24.214035672612102,0.5879148033179449,3
24.224037339556595,0.5498816911354947,3
24.234039006501085,0.4790062061269671,3
24.244040673445575,0.43887378036365443,3
24.254042340390065,0.3626873854741052,3
24.264044007334558,0.29562874051626026,3
24.274045674279048,0.2363708974808613,3
24.284047341223538,0.236481844802452,3
24.294049008168027,0.17012099503104683,3
24.30405067511252,0.13558922845584437,3
24.31405234205701,0.09760226071821003,3
24.3240540090015,0.0511292210254426,3
24.334055675945994,0.03752956925856221,3
24.344057342890483,0.016298628747719267,3
24.354059009834973,0.0258119769475132,3
24.364060676779463,0.009811367146987118,3
24.374062343723956,0.01946306403621052,3
24.384064010668446,0.00658937083994211,3
24.394065677612936,0.0016450027166469985,3
24.404067344557426,0.006311838930352482,3
24.41406901150192,-0.009094533229582518,3
24.42407067844641,-0.012182401201881042,3
24.4340723453909,-0.01720494201372136,3
24.444074012335392,-0.021773241773574203,3
24.45407567927988,-0.034054431719173626,3
24.46407734622437,-0.05122940398727963,3
24.47407901316886,-0.08449877512818907,3
24.484080680113355,-0.12594629477130634,3
24.494082347057844,-0.15699134508676785,3
24.504084014002334,-0.1979235138648338,3
24.514085680946824,-0.2580731315758482,3
24.524087347891317,-0.30753586706812996,3
24.534089014835807,-0.3797298885546493,3
24.544090681780297,-0.42282417764176705,3
24.554092348724787,-0.47837126141030323,3
24.56409401566928,-0.5381470803015426,3
24.57409568261377,-0.5887127561120387,3
24.58409734955826,-0.6518119233739839,3
24.594099016502753,-0.6801953939294976,3
24.604100683447243,-0.7246805985288249,3
24.614102350391732,-0.7474888697068685,3
24.624104017336222,-0.8024789666577051,3
24.634105684280716,-0.7739639046196621,3
24.644107351225205,-0.7678869512114448,3
24.654109018169695,-0.7584770428698894,3
24.664110685114185,-0.728365654898504,3
24.67411235205868,-0.6659752491070053,3
24.684114019003168,-0.6284461815486868,3
24.694115685947658,-0.5751240911299939,3
24.70411735289215,-0.49204468467896345,3
24.71411901983664,-0.4188191366604609,3
24.72412068678113,-0.33172539154431724,3
24.73412235372562,-0.23863529105293063,3
24.744124020670114,-0.13967100917747033,3
24.754125687614604,-0.03730356385868676,3
24.764127354559093,0.0717960354360237,3
24.774129021503583,0.15056457903801776,3
24.784130688448077,0.2543594128453307,3
24.794132355392566,0.35107426017635757,3
24.804134022337056,0.4480932490312594,3
24.81413568928155,0.5454251306409968,3
24.82413735622604,0.5958711381892354,3
24.83413902317053,0.6497835047455208,3
24.84414069011502,0.7068959835137271,3
24.854142357059512,0.7252959878446887,3
24.864144024004002,0.7673131293800127,3
24.87414569094849,0.7744916707579098,3
24.88414735789298,0.7649607714914333,3
24.894149024837475,0.7499801920733885,3
24.904150691781965,0.745956454233382,3
24.914152358726454,0.7164313366157954,3
24.924154025670948,0.6709585386077466,3
24.934155692615438,0.6268859764130282,3
24.944157359559927,0.578849372386899,3
24.954159026504417,0.536333713285666,3
24.96416069344891,0.4743639537638181,3
24.9741623603934,0.39825713375658994,3
24.98416402733789,0.35821059629780005,3
24.99416569428238,0.2968376596462298,3
25.004167361226873,0.23822781535127707,3
25.014169028171363,0.19266505194587552,3
25.024170695115853,0.15417142580510682,3
25.034172362060346,0.11999568048812341,3
25.044174029004836,0.08565348233827338,3
25.054175695949326,0.050636404964878416,3
25.064177362893815,0.03619284947734389,3
25.07417902983831,0.02082592146671919,3
25.0841806967828,0.022815458469619285,3
25.09418236372729,0.005914357693271354,3
25.104184030671778,0.001078969502744038,3
25.11418569761627,-0.00023678978005634222,3
25.12418736456076,0.011118215075554345,3
25.13418903150525,-0.0063301818550809165,3
25.144190698449744,-0.019712154860193676,3
25.154192365394234,-0.019506634170638595,3
25.164194032338724,-0.041892336037745184,3
25.174195699283214,-0.03559746106953425,3
25.184197366227707,-0.03755866778200828,3
25.194199033172197,-0.06578810726799383,3
25.204200700116687,-0.10672789563637634,3
25.214202367061176,-0.13878453632672713,3
25.22420403400567,-0.17861045803552342,3
25.23420570095016,-0.2120987358776078,3
25.24420736789465,-0.2772648828075891,3
25.25420903483914,-0.32062459250307335,3
25.264210701783632,-0.39578796439510383,3
25.274212368728122,-0.4276878368825622,3
25.284214035672612,-0.477722711894316,3
25.294215702617105,-0.5573207990328187,3
25.304217369561595,-0.6210599120416493,3
25.314219036506085,-0.6590580233987519,3
25.324220703450575,-0.6990212826907052,3
25.334222370395068,-0.733421816338105,3
25.344224037339558,-0.7292268690093575,3
25.354225704284048,-0.7736799586936911,3
25.364227371228537,-0.77975966438575,3
25.37422903817303,-0.7650116796722082,3
25.38423070511752,-0.7714477036013835,3
25.39423237206201,-0.7533033813976818,3
25.404234039006504,-0.6734605800061266,3
25.414235705950993,-0.6379495160128899,3
25.424237372895483,-0.5753861007770091,3
25.434239039839973,-0.5141809797527161,3
25.444240706784466,-0.39517396289331436,3
25.454242373728956,-0.3219924196208783,3
25.464244040673446,-0.2058457041008189,3
25.474245707617936,-0.14096931617591676,3
25.48424737456243,0.0036088198202238776,3
25.49424904150692,0.09425736008758004,3
25.50425070845141,0.17483652014749024,3
25.514252375395902,0.28029779064056914,3
25.52425404234039,0.38032071378193244,3
25.53425570928488,0.4644130629364418,3
25.54425737622937,0.5540844357947611,3
25.554259043173865,0.6123627922115291,3
25.564260710118354,0.6695045216219877,3
25.574262377062844,0.7062520493067777,3
25.584264044007334,0.7505240903508978,3
25.594265710951827,0.7806331265787584,3
25.604267377896317,0.7651247308551716,3
25.614269044840807,0.7720933192070359,3
25.6242707117853,0.7606840052340885,3
25.63427237872979,0.7414885211777696,3
25.64427404567428,0.7147655967749114,3
25.65427571261877,0.6635241489414045,3
25.664277379563263,0.6199400390209117,3
25.674279046507753,0.5586404611652125,3
25.684280713452242,0.5173692649799295,3
25.694282380396732,0.46117803219051506,3
25.704284047341226,0.40955074822733917,3
25.714285714285715,0.3517652608121426,3
25.724287381230205,0.2868540174423317,3
25.7342890481747,0.22878076612698092,3
25.744290715119188,0.1737827233253954,3
25.754292382063678,0.14160977689645798,3
25.764294049008168,0.09872124419434776,3
25.77429571595266,0.0926749761020488,3
25.78429738289715,0.037961166419478005,3
25.79429904984164,0.01908742509655942,3
25.80430071678613,0.01584436218429869,3
25.814302383730624,0.00039023921149531314,3
25.824304050675114,0.0059138833879408045,3
25.834305717619603,0.018578087385904867,3
25.844307384564097,-0.01076056718152571,3
25.854309051508586,-0.010379930362066052,3
25.864310718453076,-0.011868385834705232,3
25.874312385397566,-0.004889507204244477,3
25.88431405234206,-0.007686373008319664,3
25.89431571928655,-0.024020573764229475,3
25.90431738623104,-0.018616604899800937,3
25.91431905317553,-0.03698206222180497,3
25.924320720120022,-0.07058413132770654,3
25.934322387064512,-0.10748344313922045,3
25.944324054009,-0.13383376772584268,3
25.954325720953495,-0.17223508813366933,3
25.964327387897985,-0.2350537918101768,3
25.974329054842475,-0.26353890244536127,3
25.984330721786964,-0.3468148765676049,3
25.994332388731458,-0.3854082221606316,3
26.004334055675947,-0.4374212380539299,3
26.014335722620437,-0.5074636552200467,3
26.024337389564927,-0.5570595667232352,3
26.03433905650942,-0.613913366713661,3
26.04434072345391,-0.6589753675737868,3
26.0543423903984,-0.7054392199392009,3
26.06434405734289,-0.7361400473297807,3
26.074345724287383,-0.7558908609717743,3
26.084347391231873,-0.7823014082089209,3
26.094349058176363,-0.7889951537342378,3
26.104350725120856,-0.7800763157418167,3
26.114352392065346,-0.7530112957284998,3
26.124354059009836,-0.7182463497819902,3
26.134355725954325,-0.6753501419037978,3
26.14435739289882,-0.6298121749287426,3
26.15435905984331,-0.5429130896381389,3
26.1643607267878,-0.4908375805038163,3
26.174362393732288,-0.3769958613624514,3
26.18436406067678,-0.3032746649852743,3
26.19436572762127,-0.1910960632159688,3
26.20436739456576,-0.0892699962901399,3
26.214369061510254,0.0023463401624983955,3
26.224370728454744,0.10749019782236047,3
26.234372395399234,0.20119812365158046,3
26.244374062343724,0.31864524770257785,3
26.254375729288217,0.3902463570535269,3
26.264377396232707,0.4579993218177988,3
26.274379063177197,0.5556170533335416,3
26.284380730121686,0.6141117262606961,3
26.29438239706618,0.6848042629290698,3
26.30438406401067,0.7027664561259767,3
26.31438573095516,0.7753470846239201,3
26.324387397899653,0.7851525666248236,3
26.334389064844142,0.7812440432088997,3
26.344390731788632,0.7853164232621346,3
26.354392398733122,0.743533386469128,3
26.364394065677615,0.7266008154509617,3
26.374395732622105,0.7026125012587914,3
26.384397399566595,0.6609929722091841,3
26.394399066511085,0.593356534740747,3
26.404400733455578,0.5426683388916919,3
26.414402400400068,0.4995248341189921,3
26.424404067344557,0.43227695142877726,3
26.43440573428905,0.3838052516262904,3
26.44440740123354,0.3219602495559518,3
26.45440906817803,0.28959249853207675,3
26.46441073512252,0.2262149395382933,3
26.474412402067014,0.1742012705266415,3
26.484414069011503,0.14236137886914776,3
26.494415735955993,0.10445862646984791,3
26.504417402900483,0.07416759905154316,3
26.514419069844976,0.03585457114589178,3
26.524420736789466,0.03214054602097895,3
26.534422403733956,0.012070418539838406,3
26.54442407067845,0.008446913257915169,3
26.55442573762294,0.0042292783048705086,3
26.56442740456743,0.018469023528830012,3
26.57442907151192,0.00021369309734350502,3
26.584430738456412,-0.012746358848256513,3
26.5944324054009,-0.0014335321206316103,3
26.60443407234539,-0.0038834859519444546,3
26.61443573928988,-0.01844927096326075,3
26.624437406234374,-0.01851596252705917,3
26.634439073178864,-0.04543952159321085,3
26.644440740123354,-0.05413580522978478,3
26.654442407067847,-0.07399595025899151,3
26.664444074012337,-0.10977761541922625,3
26.674445740956827,-0.1336512345466207,3
26.684447407901317,-0.17348671419998307,3
26.69444907484581,-0.22643833167981317,3
26.7044507417903,-0.27931164590593593,3
26.71445240873479,-0.3377192087843384,3
26.72445407567928,-0.39189530277304463,3
26.734455742623773,-0.43708037424632845,3
26.744457409568263,-0.5151276883897864,3
26.754459076512752,-0.5794687972428884,3
26.764460743457242,-0.6215316951832427,3
26.774462410401735,-0.6556310657347867,3
26.784464077346225,-0.7088100026590769,3
26.794465744290715,-0.7375969657565801,3
26.80446741123521,-0.7701045219897487,3
26.814469078179698,-0.781472755543267,3
26.824470745124188,-0.790335095422008,3
26.834472412068678,-0.7576500380056425,3
26.84447407901317,-0.7587967711703484,3
26.85447574595766,-0.7105449017812105,3
26.86447741290215,-0.6868072497158451,3
26.87447907984664,-0.6065079356736264,3
26.884480746791134,-0.5285489521612694,3
26.894482413735624,-0.4462414273763105,3
26.904484080680113,-0.3709438823428539,3
26.914485747624607,-0.2852002900848799,3
26.924487414569096,-0.16603599395627736,3
26.934489081513586,-0.08834663233464171,3
26.944490748458076,0.037269868560713654,3
26.95449241540257,0.1282999973087638,3
26.96449408234706,0.21387873913929076,3
26.97449574929155,0.32866267615266187,3
26.98449741623604,0.40876101061609743,3
26.994499083180532,0.49295397453698614,3
27.004500750125022,0.5703834647276104,3
27.01450241706951,0.6201564946960761,3
27.024504084014005,0.693030845202833,3
27.034505750958495,0.7316467267685649,3
27.044507417902985,0.7701112229259363,3
27.054509084847474,0.774300197299406,3
27.064510751791968,0.7730636487241449,3
27.074512418736457,0.778926816875124,3
27.084514085680947,0.78242419979211,3
27.094515752625437,0.7328233659305681,3
27.10451741956993,0.6829116597187755,3
27.11451908651442,0.6449866246701974,3
27.12452075345891,0.5920101968560919,3
27.134522420403403,0.5617279281262803,3
27.144524087347893,0.48966423762246364,3
27.154525754292383,0.4275040234307451,3
27.164527421236873,0.38081728285245736,3
27.174529088181366,0.32626207892137177,3
27.184530755125856,0.27108126685066625,3
27.194532422070345,0.213874163971003,3
27.204534089014835,0.17943985419878622,3
27.21453575595933,0.12543877093780084,3
27.22453742290382,0.086879815215936,3
27.234539089848308,0.06845335358971481,3
27.2445407567928,0.041666962324980246,3
27.25454242373729,0.044213184964021116,3
27.26454409068178,0.008001101328493528,3
27.27454575762627,0.008692171569718866,3
27.284547424570764,-0.01330729071885009,3
27.294549091515254,0.007410945916762559,3
27.304550758459744,0.011005296679492136,3
27.314552425404234,-0.005171945494066469,3
27.324554092348727,-0.005607033916023335,3
27.334555759293217,-0.005762087447792993,3
27.344557426237706,-0.008490080118581891,3
27.3545590931822,-0.022115437791996845,3
27.36456076012669,-0.03436054852092334,3
27.37456242707118,-0.046728458681462845,3
27.38456409401567,-0.07863378701856555,3
27.394565760960162,-0.1273818253073082,3
27.404567427904652,-0.14490875804000103,3
27.414569094849142,-0.19336011699035488,3
27.424570761793632,-0.25423579308094857,3
27.434572428738125,-0.27621188768544264,3
27.444574095682615,-0.3511221742727169,3
27.454575762627105,-0.4151135585536671,3
27.464577429571595,-0.45959437340451265,3
27.474579096516088,-0.5152761480284823,3
27.484580763460578,-0.5853844226303453,3
27.494582430405067,-0.6417883098151418,3
27.50458409734956,-0.6845502491682529,3
27.51458576429405,-0.700562378966886,3
27.52458743123854,-0.7452309314998031,3
27.53458909818303,-0.7672118121365136,3
27.544590765127523,-0.7706535236755906,3
27.554592432072013,-0.781857207724611,3
27.564594099016503,-0.7656832857121829,3
27.574595765960993,-0.7400459685447996,3
27.584597432905486,-0.7132524892385826,3
27.594599099849976,-0.6400761763382028,3
27.604600766794466,-0.6057059109595114,3
27.61460243373896,-0.531888414327666,3
27.62460410068345,-0.44016989289986785,3
27.63460576762794,-0.3578969137419944,3
27.64460743457243,-0.27525248420164145,3
27.65460910151692,-0.14562964470279985,3
27.66461076846141,-0.043292904254138065,3
27.6746124354059,0.041232755794005066,3
27.68461410235039,0.12890546534018565,3
27.694615769294884,0.25023744439084655,3
27.704617436239374,0.3355890584972277,3
27.714619103183864,0.4337190467350381,3
27.724620770128357,0.5038497576731351,3
27.734622437072847,0.5878870143042751,3
27.744624104017337,0.6327036478080743,3
27.754625770961827,0.7043176025179246,3
27.76462743790632,0.7267828920193784,3
27.77462910485081,0.7584338985675292,3
27.7846307717953,0.7787251854059446,3
27.79463243873979,0.7980915223417805,3
27.804634105684283,0.7934275966500868,3
27.814635772628773,0.7429987391237584,3
27.824637439573262,0.7066344607625207,3
27.834639106517756,0.6965491281534368,3
27.844640773462245,0.6318066747941542,3
27.854642440406735,0.5824479064422994,3
27.864644107351225,0.5427349164358908,3
27.87464577429572,0.4865016603072494,3
27.884647441240208,0.4216112998387456,3
27.894649108184698,0.36657730074844797,3
27.904650775129188,0.3028400128651298,3
27.91465244207368,0.2506983290601432,3
27.92465410901817,0.21456219511558963,3
27.93465577596266,0.16559507946409963,3
27.944657442907154,0.12320170405986867,3
27.954659109851644,0.08201592478336457,3
27.964660776796133,0.05933508115526991,3
27.974662443740623,0.02877715848610045,3
27.984664110685117,0.018367770492331625,3
27.994665777629606,0.02892665917644445,3
28.004667444574096,-0.0019195788935192533,3
28.014669111518586,-0.003997128933757029,3
28.02467077846308,-0.000514379188756494,3
28.03467244540757,-0.0029133025653169556,3
28.04467411235206,0.0014508907573495336,3
28.054675779296552,0.008481676369558017,3
28.064677446241042,0.0025694377665600697,3
28.07467911318553,-0.01617037378712949,3
28.08468078013002,-0.030453112750222253,3
28.094682447074515,-0.041653449608368955,3
28.104684114019005,-0.06148035423946152,3
28.114685780963494,-0.07997247983282116,3
28.124687447907984,-0.11214926451184476,3
28.134689114852478,-0.1560384724987498,3
28.144690781796967,-0.2055242496617861,3
28.154692448741457,-0.26907188381213076,3
28.164694115685947,-0.31308614464162005,3
28.17469578263044,-0.3520334654307384,3
28.18469744957493,-0.4282291520878734,3
28.19469911651942,-0.4923657173931388,3
28.204700783463913,-0.5465543283546562,3
28.214702450408403,-0.5679359531056476,3
28.224704117352893,-0.6580485972212665,3
28.234705784297383,-0.6833232037105536,3
28.244707451241876,-0.724919953489786,3
28.254709118186366,-0.7655322330852321,3
28.264710785130855,-0.7466471263760658,3
28.274712452075345,-0.8069184173370167,3
28.28471411901984,-0.7831742792704846,3
28.29471578596433,-0.7549252244021595,3
28.304717452908818,-0.7325802746080049,3
28.31471911985331,-0.6957154748893155,3
28.3247207867978,-0.6408577982992618,3
28.33472245374229,-0.597660207641609,3
28.34472412068678,-0.5076290986059441,3
28.354725787631274,-0.43886194488029656,3
28.364727454575764,-0.3398267698515677,3
28.374729121520254,-0.24426209552753192,3
28.384730788464744,-0.14037134334047136,3
28.394732455409237,-0.03306594594498716,3
28.404734122353727,0.06872533572182447,3
28.414735789298216,0.14434385479996317,3
28.42473745624271,0.2632167617728558,3
28.4347391231872,0.3704040530448405,3
28.44474079013169,0.45576830617608155,3
28.45474245707618,0.5365913976103215,3
28.464744124020672,0.5873918094482028,3
28.474745790965162,0.6610783181065605,3
28.484747457909652,0.7135486324059866,3
28.494749124854142,0.7444270299576897,3
28.504750791798635,0.7714371141588253,3
28.514752458743125,0.7722392018250535,3
28.524754125687615,0.7656633788291514,3
28.534755792632108,0.7587305454162183,3
28.544757459576598,0.7384262184623203,3
28.554759126521088,0.724808246729087,3
28.564760793465577,0.6729035322998879,3
28.57476246041007,0.6275009666808986,3
28.58476412735456,0.5825984446648828,3
28.59476579429905,0.5131894739025951,3
28.60476746124354,0.4697602399658075,3
28.614769128188033,0.41113937259011574,3
28.624770795132523,0.340378418322213,3
28.634772462077013,0.2912680387987143,3
28.644774129021506,0.24942039419057763,3
28.654775795965996,0.1960493448325158,3
28.664777462910486,0.14238133163342032,3
28.674779129854976,0.12462507827931553,3
28.68478079679947,0.06996198227659157,3
28.69478246374396,0.048806531731216976,3
28.70478413068845,0.03947258761488623,3
28.71478579763294,0.02696722222223151,3
28.72478746457743,0.020330402285753044,3
28.73478913152192,-0.004654674800862435,3
28.74479079846641,0.0029139147952196216,3
28.754792465410905,-0.0001318988893829018,3
28.764794132355394,0.018919410933563835,3
28.774795799299884,-0.0012564085553512338,3
28.784797466244374,-0.01346017325092358,3
28.794799133188867,0.015274225495831923,3
28.804800800133357,-0.010564584718467145,3
28.814802467077847,-0.01880920871892367,3
28.824804134022337,-0.0342756664224968,3
28.83480580096683,-0.04906375684591027,3
28.84480746791132,-0.08170952252660617,3
28.85480913485581,-0.12252542547562517,3
