time,ppg_signal,subject_id
0.0,0.004561543193092921,12
0.010001666944490749,0.11643971274879791,12
0.020003333888981498,0.2240996258685957,12
0.030005000833472247,0.29951674781872717,12
0.040006667777962995,0.3969016067010872,12
0.050008334722453744,0.4811737426192008,12
0.06001000166694449,0.5628318085095544,12
0.07001166861143523,0.6208431095299285,12
0.08001333555592599,0.6980620261512149,12
0.09001500250041675,0.718289605618815,12
0.10001666944490749,0.7638075112881064,12
0.11001833638939823,0.7617665652658888,12
0.12002000333388899,0.7920133754824275,12
0.13002167027837974,0.7691549142569255,12
0.14002333722287047,0.7598215192908044,12
0.15002500416736123,0.7280108615600015,12
0.16002667111185198,0.712329852836394,12
0.17002833805634274,0.6427302596350608,12
0.1800300050008335,0.5949129022948176,12
0.19003167194532422,0.5291351283376653,12
0.20003333888981498,0.48517972098827855,12
0.21003500583430573,0.42099382485611403,12
0.22003667277879646,0.3705733227770502,12
0.23003833972328722,0.331027889818351,12
0.24004000666777797,0.25286398823732537,12
0.2500416736122687,0.22779372959903685,12
0.2600433405567595,0.15890707623213063,12
0.2700450075012502,0.12629951909384646,12
0.28004667444574094,0.0974005227756472,12
0.2900483413902317,0.070452546140708,12
0.30005000833472245,0.048415260101131063,12
0.31005167527921323,0.01881242797231652,12
0.32005334222370396,0.011940461186915927,12
0.3300550091681947,0.0029556332124499405,12
0.3400566761126855,0.007531234507586128,12
0.3500583430571762,0.0001736863000346268,12
0.360060010001667,-0.0015675577667165238,12
0.3700616769461577,0.006455677005850215,12
0.38006334389064844,0.012587192902994314,12
0.3900650108351392,-0.012613617430601395,12
0.40006667777962995,-0.020296709530758843,12
0.4100683447241207,-0.023193142525283955,12
0.42007001166861146,-0.026832307425245977,12
0.4300716786131022,-0.06624263242281346,12
0.4400733455575929,-0.08867239003235193,12
0.4500750125020837,-0.12239760824059796,12
0.46007667944657443,-0.17166348173794654,12
0.4700783463910652,-0.2158153898287551,12
0.48008001333555594,-0.2658479341753772,12
0.49008168028004667,-0.3158964502757042,12
0.5000833472245374,-0.36465536464888454,12
0.5100850141690282,-0.431816163695465,12
0.520086681113519,-0.4839834989175254,12
0.5300883480580096,-0.5553604940434044,12
0.5400900150025004,-0.5978169689152398,12
0.5500916819469912,-0.6325649950236761,12
0.5600933488914819,-0.7063887650609553,12
0.5700950158359727,-0.7210358603214084,12
0.5800966827804634,-0.7649948641957648,12
0.5900983497249542,-0.7810491128348875,12
0.6001000166694449,-0.7768817711590261,12
0.6101016836139357,-0.7632324971453839,12
0.6201033505584265,-0.771526186433336,12
0.6301050175029171,-0.7308050222757495,12
0.6401066844474079,-0.6853747842519053,12
0.6501083513918987,-0.6255285186435426,12
0.6601100183363894,-0.5817427116941035,12
0.6701116852808802,-0.4922376641809461,12
0.680113352225371,-0.41353724087889554,12
0.6901150191698616,-0.30505222733294834,12
0.7001166861143524,-0.20578164719248876,12
0.7101183530588432,-0.10926871036595072,12
0.720120020003334,-0.022356950433064716,12
0.7301216869478246,0.09421423084153596,12
0.7401233538923154,0.18500792527740761,12
0.7501250208368062,0.29132101630087437,12
0.7601266877812969,0.39741124695699775,12
0.7701283547257877,0.48068025030115114,12
0.7801300216702785,0.5590610630353849,12
0.7901316886147691,0.6211328534096279,12
0.8001333555592599,0.6907646876338562,12
0.8101350225037507,0.7327581677058937,12
0.8201366894482414,0.746106406017353,12
0.8301383563927321,0.7630652858296617,12
0.8401400233372229,0.7849075326846487,12
0.8501416902817136,0.7714382519939915,12
0.8601433572262044,0.7636910274506677,12
0.8701450241706952,0.7441093729487156,12
0.8801466911151858,0.7023992118325902,12
0.8901483580596766,0.6596692470402408,12
0.9001500250041674,0.6186166837429586,12
0.9101516919486582,0.5575068645924954,12
0.9201533588931489,0.4926344373018409,12
0.9301550258376396,0.4273334331094962,12
0.9401566927821304,0.38363186914626435,12
0.9501583597266211,0.32049323551079756,12
0.9601600266711119,0.26483624899925307,12
0.9701616936156027,0.2061343784146235,12
0.9801633605600933,0.16347050607813804,12
0.9901650275045841,0.13927969749938435,12
1.0001666944490748,0.10095994766086543,12
1.0101683613935657,0.043499479019166676,12
1.0201700283380564,0.03094363419993036,12
1.030171695282547,0.040756985330149716,12
1.040173362227038,0.002407242196365676,12
1.0501750291715286,0.006537512316089618,12
1.0601766961160193,0.0005485431505059552,12
1.0701783630605102,-0.005607621209264373,12
1.0801800300050008,0.012458410041696726,12
1.0901816969494915,0.004853431588645835,12
1.1001833638939824,0.007718639325497085,12
1.110185030838473,-0.007371408066091779,12
1.1201866977829638,-0.010889603531406255,12
1.1301883647274547,-0.030758785816947347,12
1.1401900316719453,-0.050777037101359994,12
1.1501916986164362,-0.059718588334219475,12
1.160193365560927,-0.08904631416300204,12
1.1701950325054176,-0.10718777408699053,12
1.1801966994499085,-0.1678547956471883,12
1.1901983663943991,-0.20716324244895803,12
1.2002000333388898,-0.24077179861232573,12
1.2102017002833807,-0.3036339685675605,12
1.2202033672278714,-0.34901818328908885,12
1.230205034172362,-0.4108127887342539,12
1.240206701116853,-0.47143116726751166,12
1.2502083680613436,-0.5245473268532498,12
1.2602100350058343,-0.5864809602117863,12
1.2702117019503252,-0.633773729954447,12
1.2802133688948159,-0.6938605900255025,12
1.2902150358393065,-0.7396610402205908,12
1.3002167027837974,-0.7464287846927564,12
1.310218369728288,-0.7618818706848945,12
1.3202200366727788,-0.7669219124941523,12
1.3302217036172697,-0.7797076983116104,12
1.3402233705617603,-0.7731206108349141,12
1.350225037506251,-0.7241540992304965,12
1.360226704450742,-0.686487962081731,12
1.3702283713952326,-0.6313760642931321,12
1.3802300383397232,-0.580964600544061,12
1.3902317052842141,-0.5097358897309264,12
1.4002333722287048,-0.41549942019680225,12
1.4102350391731955,-0.33672869972222275,12
1.4202367061176864,-0.22751514509803933,12
1.430238373062177,-0.13298860092739292,12
1.440240040006668,-0.04287319203790249,12
1.4502417069511586,0.0810392287492847,12
1.4602433738956493,0.19590978753480204,12
1.4702450408401402,0.29576799985145463,12
1.4802467077846309,0.3715119416048032,12
1.4902483747291215,0.46915897712663557,12
1.5002500416736124,0.5454791085553626,12
1.510251708618103,0.6006066338128537,12
1.5202533755625938,0.6874064637953069,12
1.5302550425070847,0.7166481465087448,12
1.5402567094515753,0.774563199132229,12
1.550258376396066,0.7854036378207168,12
1.560260043340557,0.7972917836413901,12
1.5702617102850476,0.7809796952717917,12
1.5802633772295382,0.7666847734413788,12
1.5902650441740291,0.7158594994861094,12
1.6002667111185198,0.6981164620686942,12
1.6102683780630105,0.6615619055146882,12
1.6202700450075014,0.6088213977362503,12
1.630271711951992,0.5691441486696713,12
1.6402733788964827,0.5187435966412327,12
1.6502750458409736,0.4415359604758524,12
1.6602767127854643,0.3764413124250517,12
1.670278379729955,0.31902303842831164,12
1.6802800466744459,0.25937377916370363,12
1.6902817136189365,0.2131680688376227,12
1.7002833805634272,0.16849870711092757,12
1.710285047507918,0.1291593004831907,12
1.7202867144524088,0.09927798230259446,12
1.7302883813968994,0.0689545492149922,12
1.7402900483413903,0.058348345012496305,12
1.750291715285881,0.02911472910180531,12
1.7602933822303717,0.012224995877619218,12
1.7702950491748626,0.0013601051867297362,12
1.7802967161193533,0.013258726019307372,12
1.7902983830638441,0.008542301424098437,12
1.8003000500083348,0.005425164826830479,12
1.8103017169528255,0.0027543686021408754,12
1.8203033838973164,-0.0015608937446062936,12
1.830305050841807,-0.0027562194947192238,12
1.8403067177862977,-0.003348015989829113,12
1.8503083847307886,-0.012464448560858304,12
1.8603100516752793,-0.03932882428957969,12
1.87031171861977,-0.042884073730657786,12
1.8803133855642609,-0.09073180173583902,12
1.8903150525087515,-0.10492264960374667,12
1.9003167194532422,-0.16517312101357007,12
1.910318386397733,-0.1980019021917363,12
1.9203200533422238,-0.24509755039884373,12
1.9303217202867144,-0.2927206319013383,12
1.9403233872312053,-0.3449024386637162,12
1.950325054175696,-0.4059106327037293,12
1.9603267211201867,-0.46643014074266576,12
1.9703283880646776,-0.5296150527717842,12
1.9803300550091683,-0.5644912784874823,12
1.990331721953659,-0.6398034379571055,12
2.0003333888981496,-0.6862828553219377,12
2.0103350558426407,-0.7096023566622521,12
2.0203367227871314,-0.7578719352821707,12
2.030338389731622,-0.7810080436752811,12
2.0403400566761127,-0.7760982318521203,12
2.0503417236206034,-0.7726971833168054,12
2.060343390565094,-0.7634001325635347,12
2.070345057509585,-0.7440827412238317,12
2.080346724454076,-0.6928197588339738,12
2.0903483913985665,-0.6570044083421487,12
2.100350058343057,-0.594744792464371,12
2.110351725287548,-0.5156912183050332,12
2.1203533922320386,-0.4290145720270218,12
2.1303550591765297,-0.3372947470481578,12
2.1403567261210203,-0.2552990310338645,12
2.150358393065511,-0.14056471155939154,12
2.1603600600100017,-0.0408846843396432,12
2.1703617269544924,0.06388332447042662,12
2.180363393898983,0.1843248913176202,12
2.190365060843474,0.25911933761436406,12
2.200366727787965,0.36394545315842963,12
2.2103683947324555,0.4629092654474483,12
2.220370061676946,0.5353758254560973,12
2.230371728621437,0.5865375734659326,12
2.2403733955659275,0.6642257970458826,12
2.2503750625104186,0.7260680350081425,12
2.2603767294549093,0.749433545954227,12
2.2703783963994,0.7652810360167637,12
2.2803800633438907,0.7727547660380131,12
2.2903817302883813,0.7743933087750865,12
2.3003833972328724,0.7742623323773357,12
2.310385064177363,0.746015355804424,12
2.320386731121854,0.702316138069847,12
2.3303883980663445,0.6836044018149113,12
2.340390065010835,0.6267431795856132,12
2.350391731955326,0.5499108293424656,12
2.360393398899817,0.502806642262265,12
2.3703950658443076,0.44779321472918004,12
2.3803967327887983,0.39663156514000153,12
2.390398399733289,0.34110234437274556,12
2.4004000666777796,0.2936331160164666,12
2.4104017336222703,0.22921560160879043,12
2.4204034005667614,0.17944637528703533,12
2.430405067511252,0.13508077400505422,12
2.4404067344557427,0.10989231250158249,12
2.4504084014002334,0.08462966628234525,12
2.460410068344724,0.06363522277111827,12
2.4704117352892148,0.030522992700689623,12
2.480413402233706,0.033840159523970126,12
2.4904150691781965,0.0030754475171477936,12
2.5004167361226872,0.005891696068206699,12
2.510418403067178,0.0026335018440099434,12
2.5204200700116686,-0.0011780942640110842,12
2.5304217369561592,-0.008338999248285331,12
2.5404234039006504,-0.0045306494081672035,12
2.550425070845141,-0.000744789128238655,12
2.5604267377896317,-0.01267080201233442,12
2.5704284047341224,-0.019377537173073382,12
2.580430071678613,-0.018573928049904903,12
2.590431738623104,-0.042281602423926576,12
2.600433405567595,-0.07284602776831464,12
2.6104350725120855,-0.09667225313854277,12
2.620436739456576,-0.1527157823519355,12
2.630438406401067,-0.20307286798989155,12
2.6404400733455575,-0.2423300243438785,12
2.6504417402900486,-0.2832370186424377,12
2.6604434072345393,-0.3421207191132741,12
2.67044507417903,-0.4059925917252786,12
2.6804467411235207,-0.4578827859910921,12
2.6904484080680113,-0.5171449937794095,12
2.700450075012502,-0.5653654150889857,12
2.710451741956993,-0.6360125687321422,12
2.720453408901484,-0.6680750450644372,12
2.7304550758459745,-0.7102011377207301,12
2.740456742790465,-0.7431053520352965,12
2.750458409734956,-0.7700034161754655,12
2.7604600766794465,-0.7812358945309086,12
2.7704617436239376,-0.7532403435525176,12
2.7804634105684283,-0.7549824519944438,12
2.790465077512919,-0.7188725570582839,12
2.8004667444574096,-0.7138449977759641,12
2.8104684114019003,-0.6379651197045909,12
2.820470078346391,-0.5832780304518068,12
2.830471745290882,-0.5214129228273453,12
2.8404734122353728,-0.43874611518472334,12
2.8504750791798634,-0.37921561972949436,12
2.860476746124354,-0.24495325728469364,12
2.8704784130688448,-0.16724057015351146,12
2.880480080013336,-0.07140723639541237,12
2.8904817469578266,0.044578845787030766,12
2.9004834139023172,0.1563462609586611,12
2.910485080846808,0.25345913111359186,12
2.9204867477912986,0.3534141748447275,12
2.9304884147357892,0.43958167076122345,12
2.9404900816802804,0.5140033074325433,12
2.950491748624771,0.5764247324142407,12
2.9604934155692617,0.6612611389760056,12
2.9704950825137524,0.7027876856697783,12
2.980496749458243,0.7310136560733429,12
2.9904984164027337,0.7644019445740855,12
3.000500083347225,0.7736090998029592,12
3.0105017502917155,0.7866899051619979,12
3.020503417236206,0.7600985949367831,12
3.030505084180697,0.7351392454690164,12
3.0405067511251875,0.7238709999040798,12
3.050508418069678,0.6765870198302778,12
3.0605100850141693,0.6317020750888077,12
3.07051175195866,0.5759753079546255,12
3.0805134189031507,0.5190851991088046,12
3.0905150858476413,0.4576952763996364,12
3.100516752792132,0.39117550939036727,12
3.1105184197366227,0.3398174403295494,12
3.120520086681114,0.29467941224249566,12
3.1305217536256045,0.2429273990632674,12
3.140523420570095,0.1725612162313869,12
3.150525087514586,0.13688212396308,12
3.1605267544590765,0.10164612699691211,12
3.170528421403567,0.07185839895320484,12
3.1805300883480583,0.04002860396306268,12
3.190531755292549,0.016270791705669748,12
3.2005334222370396,0.02738545143199253,12
3.2105350891815303,-0.0029736507530270587,12
3.220536756126021,0.013862851674295866,12
3.230538423070512,-0.010461984089860772,12
3.2405400900150028,-0.004882091829362494,12
3.2505417569594934,0.003427376074277313,12
3.260543423903984,-0.00027393745567545833,12
3.270545090848475,0.008972636850375191,12
3.2805467577929655,-0.013147156259356422,12
3.2905484247374566,-0.0173199843394011,12
3.3005500916819472,-0.03257015872979827,12
3.310551758626438,-0.057304337530120396,12
3.3205534255709286,-0.0713984924531419,12
3.3305550925154193,-0.09698919876456595,12
3.34055675945991,-0.14075612872785684,12
3.350558426404401,-0.18486699307647458,12
3.3605600933488917,-0.222879885081499,12
3.3705617602933824,-0.28210007522380925,12
3.380563427237873,-0.3413484458475348,12
3.3905650941823637,-0.41014606294260386,12
3.4005667611268544,-0.4677938283177668,12
3.4105684280713455,-0.5222432167991762,12
3.420570095015836,-0.581337086062499,12
3.430571761960327,-0.6027347657704041,12
3.4405734289048175,-0.6673798394673572,12
3.450575095849308,-0.7171971355749315,12
3.460576762793799,-0.7337085157637522,12
3.47057842973829,-0.7665379276905465,12
3.4805800966827807,-0.7746104583891822,12
3.4905817636272714,-0.7776748814595317,12
3.500583430571762,-0.769859718429435,12
3.5105850975162527,-0.7310340655873343,12
3.5205867644607434,-0.7026770898900386,12
3.5305884314052345,-0.6679740105718482,12
3.540590098349725,-0.6147642933359523,12
3.550591765294216,-0.5366300512733032,12
3.5605934322387065,-0.45896676019647625,12
3.570595099183197,-0.36016805998030776,12
3.5805967661276883,-0.2719597523275699,12
3.590598433072179,-0.1572796700483983,12
3.6006001000166696,-0.057791774902767636,12
3.6106017669611603,0.04746757819907408,12
3.620603433905651,0.1546268367948634,12
3.6306051008501417,0.2644056876128174,12
3.6406067677946328,0.3400780203757143,12
3.6506084347391234,0.41862790722955556,12
3.660610101683614,0.5054971401854803,12
3.670611768628105,0.5972744224438711,12
3.6806134355725955,0.6414617946280425,12
3.690615102517086,0.7051226803874263,12
3.7006167694615772,0.7444790063288532,12
3.710618436406068,0.7653226598858458,12
3.7206201033505586,0.7847067379124822,12
3.7306217702950493,0.7771702777987927,12
3.74062343723954,0.7740039645162757,12
3.7506251041840306,0.7487221633939432,12
3.7606267711285217,0.7175178883394302,12
3.7706284380730124,0.677415674921879,12
3.780630105017503,0.6371089706351916,12
3.7906317719619937,0.5977517881346773,12
3.8006334389064844,0.5315301348245062,12
3.810635105850975,0.4647332102651719,12
3.820636772795466,0.43747873932844944,12
3.830638439739957,0.36605115125414406,12
3.8406401066844476,0.28033761466070983,12
3.8506417736289382,0.23812446732087222,12
3.860643440573429,0.18717860332544367,12
3.87064510751792,0.13561375461326922,12
3.8806467744624107,0.11921422986171948,12
3.8906484414069014,0.08869520723120096,12
3.900650108351392,0.03867264908257175,12
3.9106517752958827,0.042416206780425215,12
3.9206534422403734,0.024455851785386916,12
3.9306551091848645,0.01722723625919551,12
3.940656776129355,0.009848889865522459,12
3.950658443073846,0.012180023504097096,12
3.9606601100183365,0.011509115094705175,12
3.970661776962827,0.00794476288348818,12
3.980663443907318,-0.006258487564517818,12
3.990665110851809,0.0047476828122636665,12
4.000666777796299,0.01042883637837316,12
4.01066844474079,-0.015204286630654566,12
4.020670111685281,-0.027705911238240583,12
4.030671778629772,-0.03211172638108456,12
4.040673445574263,-0.06753141581625839,12
4.0506751125187535,-0.11287464979932071,12
4.060676779463244,-0.14434015582273693,12
4.070678446407735,-0.1757783475126235,12
4.0806801133522255,-0.22295493881320377,12
4.090681780296716,-0.2748022675346175,12
4.100683447241207,-0.31805015908124146,12
4.1106851141856975,-0.3828472520050597,12
4.120686781130188,-0.4436388072067081,12
4.130688448074679,-0.4831098228489128,12
4.14069011501917,-0.5668809317815594,12
4.150691781963661,-0.5983212368557939,12
4.160693448908152,-0.6855290940173719,12
4.170695115852642,-0.714234361557606,12
4.180696782797133,-0.7571520347308109,12
4.190698449741624,-0.784068046466865,12
4.200700116686114,-0.7885895606495789,12
4.210701783630605,-0.7833985188976113,12
4.220703450575096,-0.784002116727393,12
4.2307051175195864,-0.7634417882939528,12
4.240706784464077,-0.7246872033490631,12
4.250708451408569,-0.6674576819592718,12
4.260710118353059,-0.6132470097275359,12
4.27071178529755,-0.5325419999036085,12
4.280713452242041,-0.4675576946422006,12
4.290715119186531,-0.38092255297300615,12
4.300716786131022,-0.27575508146077626,12
4.310718453075513,-0.2018415705120074,12
4.320720120020003,-0.09614923226356875,12
4.330721786964494,0.04330970726712893,12
4.340723453908985,0.1406733359882131,12
4.350725120853475,0.24182155008819015,12
4.360726787797966,0.34634192520230445,12
4.370728454742458,0.43566134587621563,12
4.380730121686948,0.5015070132364825,12
4.390731788631439,0.5801249148516149,12
4.40073345557593,0.6424177568454805,12
4.41073512252042,0.6994307655821627,12
4.420736789464911,0.7365461218643485,12
4.430738456409402,0.7556863239584493,12
4.440740123353892,0.7844541203584381,12
4.450741790298383,0.7755276367277463,12
4.460743457242874,0.7860779308377329,12
4.470745124187364,0.7420176469273246,12
4.480746791131855,0.7287204742288506,12
4.490748458076347,0.6936848706496377,12
4.500750125020837,0.6231416300299837,12
4.510751791965328,0.5969395300422864,12
4.520753458909819,0.5543587651800066,12
4.530755125854309,0.47807307217987643,12
4.5407567927988,0.4026265991024306,12
4.550758459743291,0.3611436611499671,12
4.560760126687781,0.28689048963465946,12
4.570761793632272,0.24002567490937024,12
4.580763460576763,0.18983699060768328,12
4.590765127521253,0.15444923411384162,12
4.600766794465745,0.10325293609833833,12
4.6107684614102356,0.07092888912430922,12
4.620770128354726,0.06078043664924786,12
4.630771795299217,0.04363927316116987,12
4.640773462243708,0.013441756082618361,12
4.650775129188198,0.020251151642705665,12
4.660776796132689,0.0064593060896417295,12
4.67077846307718,0.012041752791146491,12
4.68078013002167,-0.019638851147081034,12
4.690781796966161,0.0008184034193223129,12
4.700783463910652,-0.02169940336161725,12
4.710785130855142,0.0007746552656376208,12
4.720786797799634,0.00485171087456731,12
4.7307884647441245,-0.0003303359560346969,12
4.740790131688615,-0.024914002391296902,12
4.750791798633106,-0.04294779246591052,12
4.7607934655775965,-0.06260000875292547,12
4.770795132522087,-0.09873415854313669,12
4.780796799466578,-0.13917559715026306,12
4.7907984664110685,-0.1554637507816731,12
4.800800133355559,-0.2139032722330272,12
4.81080180030005,-0.2627207261811321,12
4.820803467244541,-0.3304572322016335,12
4.830805134189032,-0.3923857067646749,12
4.840806801133523,-0.4212235273325344,12
4.8508084680780135,-0.5028717093313371,12
4.860810135022504,-0.5606587170545095,12
4.870811801966995,-0.6084478301952566,12
4.8808134689114855,-0.6430352403426685,12
4.890815135855976,-0.7044945390783812,12
4.900816802800467,-0.731057753648181,12
4.9108184697449575,-0.7502918775327819,12
4.920820136689448,-0.7714342010708902,12
4.930821803633939,-0.7685877137482414,12
4.9408234705784295,-0.764124948661736,12
4.950825137522921,-0.7546479747033955,12
4.960826804467412,-0.7156161835493273,12
4.970828471411902,-0.6823974669553304,12
4.980830138356393,-0.6279868350623404,12
4.990831805300884,-0.5597331647542303,12
5.0008334722453744,-0.4938910653957442,12
5.010835139189865,-0.39372607793706726,12
5.020836806134356,-0.2870895457867619,12
5.0308384730788465,-0.20154537900178135,12
5.040840140023337,-0.08055369235350034,12
5.050841806967828,0.010831861552310362,12
5.0608434739123185,0.10786698662023922,12
5.07084514085681,0.19927960810418743,12
5.080846807801301,0.30031949550907777,12
5.090848474745791,0.41186541190162196,12
5.100850141690282,0.49357796941193954,12
5.110851808634773,0.5746862625675705,12
5.120853475579263,0.6430168231416251,12
5.130855142523754,0.6929892283928393,12
5.140856809468245,0.7117621411917923,12
5.150858476412735,0.7527400164473718,12
5.160860143357226,0.7856378822935081,12
5.170861810301717,0.7717232660637149,12
5.180863477246208,0.7785343217987828,12
5.190865144190699,0.7514586960491854,12
5.20086681113519,0.7189252209312319,12
5.21086847807968,0.6974268178508402,12
5.220870145024171,0.6484510936512302,12
5.230871811968662,0.6014740199138967,12
5.240873478913152,0.5390851762135699,12
5.250875145857643,0.4974799833814454,12
5.260876812802134,0.4195087329354734,12
5.270878479746624,0.3711593036449427,12
5.280880146691115,0.30238504246161363,12
5.290881813635606,0.2377559309975877,12
5.300883480580097,0.20274236954380762,12
5.310885147524588,0.15016075135818815,12
5.320886814469079,0.14604483875552157,12
5.330888481413569,0.08685037544463402,12
5.34089014835806,0.056115634056695236,12
5.350891815302551,0.03437345789257303,12
5.360893482247041,0.026221411056455767,12
5.370895149191532,-0.0006083817445476335,12
5.380896816136023,-0.0022459421770807207,12
5.390898483080513,-0.002908567448701274,12
5.400900150025004,-0.018964913806890638,12
5.410901816969495,-0.007089527593156073,12
5.420903483913986,-0.0026963668524577866,12
5.430905150858477,0.009264066724487832,12
5.440906817802968,-0.009585558863746048,12
5.450908484747458,-0.024921765245506433,12
5.460910151691949,0.0017691243615370889,12
5.47091181863644,-0.0391722002110257,12
5.48091348558093,-0.07305060795308647,12
5.490915152525421,-0.09413616098184041,12
5.500916819469912,-0.11119730691425236,12
5.510918486414402,-0.17153686035077872,12
5.520920153358893,-0.22407133705913407,12
5.5309218203033845,-0.28173750299460376,12
5.540923487247875,-0.2978540070115565,12
5.550925154192366,-0.38969266070648545,12
5.5609268211368565,-0.43444761363358053,12
5.570928488081347,-0.49751786386940516,12
5.580930155025838,-0.5408994860250989,12
5.590931821970329,-0.6185538152798863,12
5.600933488914819,-0.6524809526662473,12
5.61093515585931,-0.6972427633976992,12
5.620936822803801,-0.7278712046081978,12
5.630938489748291,-0.7456167150378304,12
5.640940156692782,-0.7763000752450128,12
5.6509418236372735,-0.7896594398187163,12
5.660943490581764,-0.7774660359562593,12
5.670945157526255,-0.761664078426378,12
5.6809468244707455,-0.7213988092432592,12
5.690948491415236,-0.6623314073042957,12
5.700950158359727,-0.6178891526331642,12
5.7109518253042175,-0.5647583604793587,12
5.720953492248708,-0.49014448623345624,12
5.730955159193199,-0.4032704237363913,12
5.7409568261376895,-0.31159882080903417,12
5.75095849308218,-0.21955671627493256,12
5.760960160026672,-0.11058094507011917,12
5.7709618269711624,0.0027520902295597,12
5.780963493915653,0.10099961319639048,12
5.790965160860144,0.1954940068884164,12
5.8009668278046345,0.3065763701790697,12
5.810968494749125,0.4052944035401437,12
5.820970161693616,0.4879502572674348,12
5.8309718286381065,0.5602483384223111,12
5.840973495582597,0.6235889065039861,12
5.850975162527088,0.674825664866121,12
5.8609768294715785,0.7372887743768205,12
5.870978496416069,0.7563446063384794,12
5.880980163360561,0.7711566842127028,12
5.890981830305051,0.787645578151723,12
5.900983497249542,0.756504236767256,12
5.910985164194033,0.7692399921364211,12
5.920986831138523,0.7424417797431876,12
5.930988498083014,0.7030183263550716,12
5.940990165027505,0.644407062426588,12
5.950991831971995,0.5849216202888275,12
5.960993498916486,0.569177993385088,12
5.970995165860977,0.47165535521074886,12
5.9809968328054675,0.4330891903518836,12
5.990998499749958,0.3716990885326572,12
6.00100016669445,0.3245392890614634,12
6.01100183363894,0.26797098678232745,12
6.021003500583431,0.2199086470782541,12
6.031005167527922,0.16468079641868347,12
6.041006834472412,0.12466917890668153,12
6.051008501416903,0.08261083622647367,12
6.061010168361394,0.06031784859907003,12
6.071011835305884,0.040361663638173235,12
6.081013502250375,0.030437956070249877,12
6.091015169194866,0.010020764195916429,12
6.101016836139356,0.011716336629635886,12
6.111018503083848,0.008776608828208316,12
6.121020170028339,0.005134438450062862,12
6.131021836972829,-0.019436150107888683,12
6.14102350391732,-0.004243604912606866,12
6.151025170861811,0.00040968724916453443,12
6.161026837806301,-0.011017795816118912,12
6.171028504750792,-0.022068454465404945,12
6.181030171695283,-0.02687768964847603,12
6.191031838639773,-0.06016180411651479,12
6.201033505584264,-0.05696892510397913,12
6.211035172528755,-0.08668648127540451,12
6.221036839473245,-0.12427802310887603,12
6.231038506417737,-0.16450716995506182,12
6.241040173362228,-0.20402920065960028,12
6.251041840306718,-0.2531469175208688,12
6.261043507251209,-0.301722022318427,12
6.2710451741957,-0.36334513905911886,12
6.28104684114019,-0.4280692919642643,12
6.291048508084681,-0.4832219661326236,12
6.301050175029172,-0.5292975257312789,12
6.311051841973662,-0.5904208559545583,12
6.321053508918153,-0.6421039506156451,12
6.331055175862644,-0.7069263925211826,12
6.341056842807134,-0.7314077308763373,12
6.351058509751626,-0.7359398406432947,12
6.361060176696117,-0.7764687364919567,12
6.371061843640607,-0.7883823917547788,12
6.381063510585098,-0.787965913365761,12
6.391065177529589,-0.7481376717647835,12
6.401066844474079,-0.7287960103404133,12
6.41106851141857,-0.6892622398192334,12
6.421070178363061,-0.6406684484046895,12
6.431071845307551,-0.5695771066046847,12
6.441073512252042,-0.49216867658614616,12
6.451075179196533,-0.4170789161388532,12
6.461076846141024,-0.3139401310324439,12
6.471078513085515,-0.2042235079168495,12
6.4810801800300055,-0.13569867388465,12
6.491081846974496,-0.017072826976087366,12
6.501083513918987,0.07831133720718696,12
6.5110851808634775,0.18570188145116742,12
6.521086847807968,0.29661232879178695,12
6.531088514752459,0.3859464478497543,12
6.54109018169695,0.4630132826118179,12
6.55109184864144,0.5548536433532907,12
6.561093515585931,0.6196096566054177,12
6.571095182530422,0.6732062652243083,12
6.581096849474913,0.7199991676471409,12
6.591098516419404,0.7364165964981033,12
6.6011001833638945,0.7579472021569701,12
6.611101850308385,0.7831404364611757,12
6.621103517252876,0.7912256353468881,12
6.6311051841973665,0.7590235342230945,12
6.641106851141857,0.7501210370504786,12
6.651108518086348,0.7062856401260525,12
6.6611101850308385,0.666339764317752,12
6.671111851975329,0.6191032949959844,12
6.68111351891982,0.5700904882187942,12
6.6911151858643105,0.5150911343839211,12
6.701116852808802,0.4396692968164478,12
6.711118519753293,0.37708191221231685,12
6.721120186697783,0.3409228734677991,12
6.731121853642274,0.27242249995594475,12
6.741123520586765,0.22694366316302034,12
6.7511251875312555,0.16453971268345785,12
6.761126854475746,0.1416906095442552,12
6.771128521420237,0.09364904977944365,12
6.7811301883647275,0.06418683673328114,12
6.791131855309218,0.06567944592809455,12
6.801133522253709,0.025108371739605003,12
6.8111351891982,0.01111283275678671,12
6.821136856142691,0.00758781008998997,12
6.831138523087182,-0.002268286690719626,12
6.841140190031672,0.0031827299519628016,12
6.851141856976163,0.0008109587947438146,12
6.861143523920654,-0.016049765407899774,12
6.871145190865144,0.011088415340024381,12
6.881146857809635,0.0071799913387638765,12
6.891148524754126,0.001214365483462699,12
6.901150191698616,-0.014623515123425645,12
6.911151858643107,-0.037229379786452535,12
6.921153525587598,-0.03285116748482936,12
6.931155192532089,-0.08914112954857623,12
6.94115685947658,-0.11245310796399818,12
6.951158526421071,-0.15738231606641426,12
6.961160193365561,-0.1995161642921555,12
6.971161860310052,-0.2523550771867549,12
6.981163527254543,-0.3091079271692448,12
6.991165194199033,-0.34510058773524005,12
7.001166861143524,-0.4150948105506672,12
7.011168528088015,-0.4769879182553249,12
7.021170195032505,-0.5535692409122891,12
7.031171861976996,-0.583465388270945,12
7.041173528921487,-0.6363117766047434,12
7.051175195865978,-0.6828195690564932,12
7.061176862810469,-0.71681866660849,12
7.07117852975496,-0.7681793491632735,12
7.08118019669945,-0.7683658925990146,12
7.091181863643941,-0.7772726860139071,12
7.101183530588432,-0.7800870040377001,12
7.111185197532922,-0.7493458997559791,12
7.121186864477413,-0.72697436242144,12
7.131188531421904,-0.690684047900605,12
7.141190198366394,-0.655202529676005,12
7.151191865310885,-0.5607122398430466,12
7.161193532255377,-0.4938943446549498,12
7.171195199199867,-0.4173769944092782,12
7.181196866144358,-0.3122835772385824,12
7.191198533088849,-0.22024058550886144,12
7.201200200033339,-0.11774200867412998,12
7.21120186697783,-0.02390194595961348,12
7.221203533922321,0.08729677423505902,12
7.231205200866811,0.17812027680445577,12
7.241206867811302,0.27956006238871894,12
7.251208534755793,0.3675507357627709,12
7.261210201700283,0.4611554889744301,12
7.271211868644774,0.5339177784969642,12
7.2812135355892655,0.5989630513988473,12
7.291215202533756,0.672152887773502,12
7.301216869478247,0.7191125537623525,12
7.311218536422738,0.7370526355685559,12
7.321220203367228,0.7667082055768644,12
7.331221870311719,0.7947617903585585,12
7.34122353725621,0.7738136700276791,12
7.3512252042007,0.7602153662202261,12
7.361226871145191,0.74894734722897,12
7.371228538089682,0.7067520955998974,12
7.381230205034172,0.66809318925853,12
7.391231871978664,0.6314423429172549,12
7.4012335389231545,0.5563450358238549,12
7.411235205867645,0.5153678186587991,12
7.421236872812136,0.42253438887951644,12
7.4312385397566265,0.38331992706452894,12
7.441240206701117,0.32906425809291345,12
7.451241873645608,0.27059167801515166,12
7.4612435405900985,0.2259695516982858,12
7.471245207534589,0.17714201762520274,12
7.48124687447908,0.1492322210892145,12
7.4912485414235706,0.10146758546497517,12
7.501250208368061,0.06275323828391044,12
7.511251875312553,0.034506010923670685,12
7.5212535422570435,0.04183116432585303,12
7.531255209201534,0.016550712779134058,12
7.541256876146025,0.009078434385871538,12
7.5512585430905155,0.004960428721952789,12
7.561260210035006,0.006560782487330385,12
7.571261876979497,0.0008792707681454985,12
7.5812635439239875,-0.01302970472176549,12
7.591265210868478,-0.0014424225116874993,12
7.601266877812969,0.0016406151503636163,12
7.6112685447574595,0.0024774062365594905,12
7.62127021170195,-0.024572173508338756,12
7.631271878646442,-0.044245647836685144,12
7.641273545590932,-0.07143036901157179,12
7.651275212535423,-0.09054890797381338,12
7.661276879479914,-0.10616950188101483,12
7.671278546424404,-0.1501169500227896,12
7.681280213368895,-0.18506025871542722,12
7.691281880313386,-0.2581696901217122,12
7.7012835472578764,-0.30028891165035065,12
7.711285214202367,-0.3470289047886896,12
7.721286881146858,-0.40260173187363446,12
7.7312885480913485,-0.45835949936216985,12
7.74129021503584,-0.5302468233630758,12
7.751291881980331,-0.5697742742941295,12
7.761293548924821,-0.6424821167843653,12
7.771295215869312,-0.687054635686663,12
7.781296882813803,-0.7413989671589505,12
7.791298549758293,-0.7552486381692467,12
7.801300216702784,-0.760295946588638,12
7.811301883647275,-0.7877370894473237,12
7.821303550591765,-0.7816305988596509,12
7.831305217536256,-0.7557910214536231,12
7.841306884480747,-0.74190719815341,12
7.851308551425237,-0.6926042547784288,12
7.861310218369729,-0.6635870416510977,12
7.87131188531422,-0.581728199644954,12
7.88131355225871,-0.5163163716676674,12
7.891315219203201,-0.41960964871957085,12
7.901316886147692,-0.34966221051569474,12
7.911318553092182,-0.23374485571860168,12
7.921320220036673,-0.14563083253167855,12
7.931321886981164,-0.03456113316638969,12
7.941323553925654,0.06905962096993556,12
7.951325220870145,0.1607147090395843,12
7.961326887814636,0.2769602483851868,12
7.971328554759126,0.3760292719164381,12
7.981330221703618,0.45792881591952017,12
7.991331888648109,0.5258618570279261,12
8.001333555592598,0.6027332502917745,12
8.01133522253709,0.6579920122991844,12
8.02133688948158,0.7087083307289753,12
8.031338556426071,0.7264321325084847,12
8.041340223370563,0.7736040013378611,12
8.051341890315053,0.7747622575231599,12
8.061343557259544,0.7599306226161381,12
8.071345224204034,0.765920158713537,12
8.081346891148526,0.7510939187376539,12
8.091348558093015,0.6991129446813782,12
8.101350225037507,0.6576147309607518,12
8.111351891981997,0.6251872407329001,12
8.121353558926488,0.5865724380094997,12
8.131355225870978,0.5129476286738222,12
8.14135689281547,0.45715833661213884,12
8.151358559759961,0.3828573130109793,12
8.161360226704451,0.3373499894916118,12
8.171361893648942,0.28748238317216845,12
8.181363560593432,0.2168473927137651,12
8.191365227537924,0.18275664814425588,12
8.201366894482414,0.13963039287455425,12
8.211368561426905,0.11386874908158447,12
8.221370228371395,0.08520590191167252,12
8.231371895315887,0.0502670570365349,12
8.241373562260376,0.042753441051657175,12
8.251375229204868,0.022989975846146364,12
8.261376896149358,-0.00110611271097673,12
8.27137856309385,-0.012592057299191812,12
8.28138023003834,0.00031148777276776676,12
8.29138189698283,-0.0005780078398002673,12
8.301383563927322,0.00411222665602797,12
8.311385230871812,-0.005894496385783749,12
8.321386897816303,-0.016913978854209463,12
8.331388564760793,-0.00859254857134676,12
8.341390231705285,-0.017381667837654706,12
8.351391898649775,-0.02880545842771678,12
8.361393565594266,-0.06629653160444746,12
8.371395232538756,-0.07844802660120463,12
8.381396899483248,-0.10023722226052152,12
8.391398566427739,-0.13687014866973765,12
8.401400233372229,-0.1952383685806314,12
8.41140190031672,-0.23703752638678457,12
8.42140356726121,-0.2823788144149334,12
8.431405234205702,-0.3451107087047621,12
8.441406901150192,-0.3888246113215139,12
8.451408568094683,-0.47442539050532334,12
8.461410235039173,-0.5195477423516227,12
8.471411901983664,-0.5770542758951257,12
8.481413568928154,-0.6277051701479806,12
8.491415235872646,-0.6699711143430654,12
8.501416902817137,-0.7046976578890768,12
8.511418569761627,-0.7431803572471563,12
8.521420236706119,-0.7710478111639066,12
8.531421903650608,-0.7887438227880368,12
8.5414235705951,-0.7897421049706618,12
8.55142523753959,-0.7819859137638828,12
8.561426904484081,-0.7495801965526435,12
8.571428571428571,-0.7055079169356038,12
8.581430238373063,-0.6524582162119734,12
8.591431905317553,-0.5785636153495951,12
8.601433572262044,-0.5170716756298893,12
8.611435239206534,-0.4447630623475538,12
8.621436906151025,-0.3499877238013484,12
8.631438573095517,-0.2611454149830188,12
8.641440240040007,-0.14693309795001333,12
8.651441906984498,-0.055270058805219874,12
8.661443573928988,0.055269851315224064,12
8.67144524087348,0.14830607642109286,12
8.68144690781797,0.24762895018769732,12
8.691448574762461,0.34515165702675504,12
8.70145024170695,0.43559887741403575,12
8.711451908651442,0.5204939457952066,12
8.721453575595932,0.58779570508267,12
8.731455242540424,0.6435443233295524,12
8.741456909484915,0.7044183806061803,12
8.751458576429405,0.7392329604287124,12
8.761460243373897,0.7567259079835439,12
8.771461910318386,0.772950511311981,12
8.781463577262878,0.7769247011575665,12
8.791465244207368,0.7576311868451638,12
8.80146691115186,0.7393519899549726,12
8.811468578096349,0.6885718259474453,12
8.82147024504084,0.6842469870878067,12
8.83147191198533,0.6264452535219835,12
8.841473578929822,0.5862274830429914,12
8.851475245874314,0.5173468559967959,12
8.861476912818803,0.46506430130910764,12
8.871478579763295,0.4082353167080237,12
8.881480246707785,0.34604792226178477,12
8.891481913652276,0.3099881797114596,12
8.901483580596766,0.230287769010445,12
8.911485247541258,0.1972300616552333,12
8.921486914485747,0.1572572746146826,12
8.931488581430239,0.10519152967040951,12
8.941490248374729,0.06191869187454605,12
8.95149191531922,0.05035006568432369,12
8.96149358226371,0.03283163479434608,12
8.971495249208202,0.011246612158965195,12
8.981496916152693,0.024460939330976383,12
8.991498583097183,-0.01260700109315168,12
9.001500250041675,-0.004495332591256277,12
9.011501916986164,-0.0017026101498356973,12
9.021503583930656,-0.0008731790074955521,12
9.031505250875146,0.011695074758379921,12
9.041506917819637,-0.006921465836664687,12
9.051508584764127,0.007531943727248148,12
9.061510251708619,-0.013800960520060676,12
9.071511918653108,-0.016823052537733592,12
9.0815135855976,-0.05163390351003654,12
9.091515252542091,-0.06988047776060563,12
9.101516919486581,-0.10132307866010618,12
9.111518586431073,-0.14539709256777444,12
9.121520253375563,-0.1939183993277578,12
9.131521920320054,-0.2376253793099954,12
9.141523587264544,-0.2837324411483085,12
9.151525254209036,-0.3385731087630993,12
9.161526921153525,-0.38458372227852056,12
9.171528588098017,-0.46383041138037145,12
9.181530255042507,-0.5238557827455451,12
9.191531921986998,-0.5711980892170029,12
9.20153358893149,-0.6212354349111002,12
9.21153525587598,-0.6638676787977588,12
9.221536922820471,-0.703141682697389,12
9.231538589764961,-0.74046228342253,12
9.241540256709452,-0.7506495392223612,12
9.251541923653942,-0.7836182251533397,12
9.261543590598434,-0.789466243744239,12
9.271545257542924,-0.7707590751969498,12
9.281546924487415,-0.7433847990865071,12
9.291548591431905,-0.7271529209483986,12
9.301550258376396,-0.6699454874901142,12
9.311551925320888,-0.6273812203741708,12
9.321553592265378,-0.5286834987932985,12
9.33155525920987,-0.463165095669714,12
9.34155692615436,-0.36661290208364355,12
9.35155859309885,-0.28801703130994394,12
9.36156026004334,-0.1684628901012422,12
9.371561926987832,-0.07033511049752415,12
9.381563593932322,0.05933117747849377,12
9.391565260876813,0.14428883325554734,12
9.401566927821303,0.2379205853259659,12
9.411568594765795,0.3493646455555073,12
9.421570261710285,0.43264940380302647,12
9.431571928654776,0.5222863061177913,12
9.441573595599268,0.5881827586404051,12
9.451575262543757,0.6449854979791213,12
9.461576929488249,0.6873622731153496,12
9.471578596432739,0.7396911694679301,12
9.48158026337723,0.7834995888373929,12
9.49158193032172,0.7878356156599746,12
9.501583597266212,0.8071118571916513,12
9.511585264210701,0.7772447304068625,12
9.521586931155193,0.7334320984017585,12
9.531588598099683,0.714740592355627,12
9.541590265044174,0.6867537565061399,12
9.551591931988666,0.6244333151359898,12
9.561593598933156,0.5804580954178014,12
9.571595265877647,0.5265930035553066,12
9.581596932822137,0.4809521758098054,12
9.591598599766629,0.4219668762413986,12
9.601600266711118,0.34799055416401453,12
9.61160193365561,0.3013377904261162,12
9.6216036006001,0.24254128700444055,12
9.631605267544591,0.18969507818866344,12
9.641606934489081,0.14931923245599854,12
9.651608601433573,0.11013139219671014,12
9.661610268378064,0.08050708714769685,12
9.671611935322554,0.03547898453120962,12
9.681613602267046,0.04525642174733851,12
9.691615269211535,0.012567088785356933,12
9.701616936156027,0.021822471060746716,12
9.711618603100517,-0.008350954258428628,12
9.721620270045008,0.01450312180224489,12
9.731621936989498,-0.009416277841714277,12
9.74162360393399,-0.0013511775225213277,12
9.75162527087848,0.006977419764722748,12
9.761626937822971,-0.001994961903633433,12
9.77162860476746,-0.003400333427758551,12
9.781630271711952,-0.0003450353822269398,12
9.791631938656444,-0.04602960552398923,12
9.801633605600934,-0.05892761267556228,12
9.811635272545425,-0.08482122022977935,12
9.821636939489915,-0.10001784835965326,12
9.831638606434407,-0.14003984996431548,12
9.841640273378896,-0.17571876863277852,12
9.851641940323388,-0.2317501113860591,12
9.861643607267878,-0.2634333226228525,12
9.87164527421237,-0.32079252694689114,12
9.881646941156859,-0.39882139109517495,12
9.89164860810135,-0.44561322964600864,12
9.901650275045842,-0.5229913450929624,12
9.911651941990332,-0.5724511308647491,12
9.921653608934824,-0.6210484924890017,12
9.931655275879313,-0.6561621813164837,12
9.941656942823805,-0.6876501729727844,12
9.951658609768295,-0.7476954367910114,12
9.961660276712786,-0.7650650718884501,12
9.971661943657276,-0.7872886151621756,12
9.981663610601768,-0.7784617914121791,12
9.991665277546257,-0.7677987872856435,12
10.001666944490749,-0.7484205013623323,12
10.01166861143524,-0.7160463476059244,12
10.02167027837973,-0.6687733958275898,12
10.031671945324222,-0.6012702890177793,12
10.041673612268712,-0.5387210486744053,12
10.051675279213203,-0.4621196504744362,12
10.061676946157693,-0.3611204692054242,12
10.071678613102184,-0.2882606598059834,12
10.081680280046674,-0.1698482460813526,12
10.091681946991166,-0.09879410003947885,12
10.101683613935656,0.0396841111719265,12
10.111685280880147,0.12499425677970513,12
10.121686947824637,0.2368756593258193,12
10.131688614769129,0.32171983487511513,12
10.14169028171362,0.4194172841711792,12
10.15169194865811,0.49789854671402695,12
10.161693615602601,0.5802215046628358,12
10.171695282547091,0.6208568291874317,12
10.181696949491583,0.6875825141252977,12
10.191698616436073,0.7125022192959093,12
10.201700283380564,0.7655669558899904,12
10.211701950325054,0.7803368575278945,12
10.221703617269545,0.7607135938957778,12
10.231705284214035,0.770110903802668,12
10.241706951158527,0.7654691120343733,12
10.251708618103018,0.7235026735072929,12
10.261710285047508,0.6752414654176416,12
10.271711951992,0.6302661345555384,12
10.28171361893649,0.583397459388802,12
10.291715285880981,0.5263772534265213,12
10.30171695282547,0.4791670642048387,12
10.311718619769962,0.4245606050491386,12
10.321720286714452,0.34112945900199243,12
10.331721953658944,0.30899155797364636,12
10.341723620603434,0.24970655726280264,12
10.351725287547925,0.19642773692252724,12
10.361726954492417,0.17326292226202267,12
10.371728621436906,0.11113567536915817,12
10.381730288381398,0.08377541908062447,12
10.391731955325888,0.058489789289878726,12
10.40173362227038,0.015322940860092876,12
10.41173528921487,0.03363111168697147,12
10.42173695615936,0.010379661111825913,12
10.43173862310385,0.018172827569685773,12
10.441740290048342,0.014828956677487938,12
10.451741956992832,0.005455967384503055,12
10.461743623937323,-0.000831858799984582,12
10.471745290881813,-0.0019458397653420595,12
10.481746957826305,-0.017115368644930188,12
10.491748624770796,0.0005163358397410021,12
10.501750291715286,-0.008164229962996705,12
10.511751958659778,-0.02683798969948299,12
10.521753625604267,-0.038379798888291856,12
10.531755292548759,-0.07254284059633964,12
10.541756959493249,-0.09391238912158788,12
10.55175862643774,-0.13146810236767487,12
10.56176029338223,-0.16826861273246513,12
10.571761960326722,-0.21825664934853928,12
10.581763627271211,-0.26615857662691306,12
10.591765294215703,-0.3124470568021072,12
10.601766961160195,-0.39088578891270376,12
10.611768628104684,-0.45278995485119605,12
10.621770295049176,-0.49289213495084294,12
10.631771961993666,-0.5389951806450649,12
10.641773628938157,-0.59382701003975,12
10.651775295882647,-0.6509584720008296,12
10.661776962827139,-0.6932626869309758,12
10.671778629771628,-0.743912418664978,12
10.68178029671612,-0.7712804493137175,12
10.69178196366061,-0.7795245347739103,12
10.701783630605101,-0.7595736484161726,12
10.711785297549593,-0.7825050241074428,12
10.721786964494083,-0.7536226060428614,12
10.731788631438574,-0.7228778332615149,12
10.741790298383064,-0.6805291458536192,12
10.751791965327556,-0.6121819970257488,12
10.761793632272045,-0.5407070671663643,12
10.771795299216537,-0.4630796578472489,12
10.781796966161027,-0.39087467270456633,12
10.791798633105518,-0.2990445031378916,12
10.801800300050008,-0.19028276518085901,12
10.8118019669945,-0.09126572830427684,12
10.82180363393899,0.015321028394815264,12
10.831805300883481,0.12123806916776242,12
10.841806967827972,0.23121574813806817,12
10.851808634772462,0.33292855202345056,12
10.861810301716954,0.43428447097087036,12
10.871811968661444,0.5038274589474865,12
10.881813635605935,0.5494160104626576,12
10.891815302550425,0.6387904175225669,12
10.901816969494917,0.6799168516137668,12
10.911818636439406,0.7326846358500836,12
10.921820303383898,0.7479102644323177,12
10.931821970328388,0.782016027058281,12
10.94182363727288,0.780268422584783,12
10.95182530421737,0.7768584083187207,12
10.96182697116186,0.7450743717046572,12
10.971828638106352,0.7138560729004002,12
10.981830305050842,0.6906727234767791,12
10.991831971995333,0.628719774099857,12
11.001833638939823,0.5926521199193457,12
11.011835305884315,0.5340431426218469,12
11.021836972828805,0.4677885429199712,12
11.031838639773296,0.43429805684270123,12
11.041840306717786,0.369821528538685,12
11.051841973662277,0.3131109415266368,12
11.061843640606769,0.25595034082123186,12
11.071845307551259,0.20318119948933916,12
11.08184697449575,0.15872405483964688,12
11.09184864144024,0.14826532134328627,12
11.101850308384732,0.09222439236784993,12
11.111851975329222,0.05353684088088894,12
11.121853642273713,0.04806111896637606,12
11.131855309218203,0.015934027793541285,12
11.141856976162694,0.007519700530425304,12
11.151858643107184,0.007446443822586935,12
11.161860310051676,-0.02097960235908613,12
11.171861976996166,0.01184217866746154,12
11.181863643940657,-0.00982983588049743,12
11.191865310885149,-0.002918719524871348,12
11.201866977829638,0.0026467146033304677,12
11.21186864477413,-0.002128854078279828,12
11.22187031171862,0.001966754355208525,12
11.231871978663111,-0.022876472127465176,12
11.241873645607601,-0.032080405159727036,12
11.251875312552093,-0.06800642549018902,12
11.261876979496583,-0.0894805946255832,12
11.271878646441074,-0.12874958605181233,12
11.281880313385564,-0.16450079293172773,12
11.291881980330055,-0.21584321616567656,12
11.301883647274547,-0.25793003858139457,12
11.311885314219037,-0.31360734384016353,12
11.321886981163528,-0.3584020432162928,12
11.331888648108018,-0.4221456285840705,12
11.34189031505251,-0.4756434877259441,12
11.351891981997,-0.5433926414106296,12
11.361893648941491,-0.6023624444187622,12
11.37189531588598,-0.6382506613280094,12
11.381896982830472,-0.6994041368564141,12
11.391898649774962,-0.7335238901345082,12
11.401900316719454,-0.7594496496308076,12
11.411901983663945,-0.7705222460884683,12
11.421903650608435,-0.8004316423832541,12
11.431905317552927,-0.7776903174490772,12
11.441906984497416,-0.752272182116549,12
11.451908651441908,-0.7158076874037667,12
11.461910318386398,-0.6890803536130793,12
11.47191198533089,-0.6151541109668472,12
11.481913652275379,-0.5645854910665736,12
11.49191531921987,-0.48390861622608505,12
11.50191698616436,-0.40001207224337854,12
11.511918653108852,-0.2977575192277012,12
11.521920320053344,-0.20931440933866086,12
11.531921986997833,-0.09343003013108567,12
11.541923653942325,0.0065945635890934376,12
11.551925320886815,0.1022541413566115,12
11.561926987831306,0.19974134279130645,12
11.571928654775796,0.30791843117207296,12
11.581930321720288,0.38871498049321374,12
11.591931988664777,0.47678932011585906,12
11.601933655609269,0.5531529507474514,12
11.611935322553759,0.6337343482835847,12
11.62193698949825,0.6798094701317652,12
11.63193865644274,0.7302258379053393,12
11.641940323387232,0.7449923294765469,12
11.651941990331723,0.7723515763013716,12
11.661943657276213,0.7873812984791301,12
11.671945324220705,0.7803364615996435,12
11.681946991165194,0.7629906630170084,12
11.691948658109686,0.7306551797293916,12
11.701950325054176,0.675993867953542,12
11.711951991998667,0.6626998588857471,12
11.721953658943157,0.5990413861571271,12
11.731955325887649,0.5587618994885208,12
11.741956992832138,0.49126861779130715,12
11.75195865977663,0.42131176971818696,12
11.761960326721121,0.36064633893556863,12
11.771961993665611,0.3199576308144741,12
11.781963660610103,0.2765233813426503,12
11.791965327554593,0.22220876650121482,12
11.801966994499084,0.17763215752971892,12
11.811968661443574,0.11700430940803133,12
11.821970328388065,0.09710869705441748,12
11.831971995332555,0.06298550469554763,12
11.841973662277047,0.028765232640342718,12
11.851975329221537,0.02187044946507587,12
11.861976996166028,0.011044851924855015,12
11.87197866311052,-0.015801533923954697,12
11.88198033005501,0.0030699041743423115,12
11.891981996999501,-0.017637141540573133,12
11.90198366394399,0.0023057966752466604,12
11.911985330888482,-0.006458322677586566,12
11.921986997832972,-0.0028490449742906076,12
11.931988664777464,-0.01981544231678605,12
11.941990331721954,-0.0028347358989270054,12
11.951991998666445,-0.027144627829651866,12
11.961993665610935,-0.04838838827074943,12
11.971995332555426,-0.04617906179972123,12
11.981996999499916,-0.07871918082993909,12
11.991998666444408,-0.11568102303755244,12
12.0020003333889,-0.15123494535445395,12
12.01200200033339,-0.18858447441373977,12
12.02200366727788,-0.25306147161978637,12
12.03200533422237,-0.312571947206632,12
12.042007001166862,-0.37838434458179215,12
12.052008668111352,-0.4240276818940594,12
12.062010335055843,-0.49244559283608763,12
12.072012002000333,-0.530124830652975,12
12.082013668944825,-0.5804709250149366,12
12.092015335889315,-0.6411028346315317,12
12.102017002833806,-0.695945910676794,12
12.112018669778298,-0.7062463151723568,12
12.122020336722787,-0.7560986284192496,12
12.132022003667279,-0.7655997223055719,12
12.142023670611769,-0.7734696612560993,12
12.15202533755626,-0.7743014564274558,12
12.16202700450075,-0.7657948006457421,12
12.172028671445242,-0.7433154072298638,12
12.182030338389731,-0.6959964433363927,12
12.192032005334223,-0.6328343691966009,12
12.202033672278713,-0.5638008184333637,12
12.212035339223204,-0.4933770665244313,12
12.222037006167696,-0.41106420518472553,12
12.232038673112186,-0.3190002548818686,12
12.242040340056677,-0.22282322909870667,12
12.252042007001167,-0.1042722773229667,12
12.262043673945659,-0.0021494140599324033,12
12.272045340890148,0.0844507974937957,12
12.28204700783464,0.1880216921291527,12
12.29204867477913,0.2909753074806229,12
12.302050341723621,0.39309514973736825,12
12.312052008668111,0.4697328759350349,12
12.322053675612603,0.5445003641808142,12
12.332055342557092,0.6051954985949127,12
12.342057009501584,0.6727987603341464,12
12.352058676446076,0.7283953299105236,12
12.362060343390565,0.753847387953288,12
12.372062010335057,0.7559776932393001,12
12.382063677279547,0.7845831953060477,12
12.392065344224038,0.7736425624115187,12
12.402067011168528,0.7513170098180816,12
12.41206867811302,0.7511486760211012,12
12.42207034505751,0.7059949047666314,12
12.432072012002001,0.6502700571348397,12
12.44207367894649,0.6126819620354346,12
12.452075345890982,0.5475061447802776,12
12.462077012835474,0.5006569909636551,12
12.472078679779964,0.43807546927867674,12
12.482080346724455,0.3967097303606721,12
12.492082013668945,0.33162397223540674,12
12.502083680613437,0.25612405245467496,12
12.512085347557926,0.2251766646632023,12
12.522087014502418,0.15819686104188163,12
12.532088681446908,0.12087499036521768,12
12.5420903483914,0.09889716600866139,12
12.552092015335889,0.04587956389037334,12
12.56209368228038,0.0345147946117255,12
12.572095349224872,0.005709970323120893,12
12.582097016169362,-0.0081667744887991,12
12.592098683113853,-0.004573994323116197,12
12.602100350058343,0.009093982885195393,12
12.612102017002835,0.0017701152451665683,12
12.622103683947325,-0.008223924050967966,12
12.632105350891816,0.010113994525886717,12
12.642107017836306,-0.00010408272577300064,12
12.652108684780798,-0.021634813434185097,12
12.662110351725287,-0.017921155455491857,12
12.672112018669779,-0.03788013466653192,12
12.682113685614269,-0.04081037436993009,12
12.69211535255876,-0.06337652490981,12
12.702117019503252,-0.08591997565136997,12
12.712118686447742,-0.10884033296955142,12
12.722120353392233,-0.15006956384234063,12
12.732122020336723,-0.19427063017884608,12
12.742123687281214,-0.247265674168199,12
12.752125354225704,-0.29509017039349467,12
12.762127021170196,-0.34375149913297093,12
12.772128688114686,-0.43071511014254904,12
12.782130355059177,-0.47558446960027395,12
12.792132022003667,-0.5300440718953383,12
12.802133688948159,-0.5759252446289769,12
12.81213535589265,-0.6544641771149053,12
12.82213702283714,-0.67227579401677,12
12.832138689781631,-0.7319648280496386,12
12.842140356726121,-0.7314276096878732,12
12.852142023670613,-0.7555829026136194,12
12.862143690615103,-0.778333787071598,12
12.872145357559594,-0.7813487383748331,12
12.882147024504084,-0.7557345341636812,12
12.892148691448575,-0.7257344246772598,12
12.902150358393065,-0.6927448323371974,12
12.912152025337557,-0.6529888536325659,12
12.922153692282048,-0.5571234400260848,12
12.932155359226538,-0.4891627866049415,12
12.94215702617103,-0.41094041599997533,12
12.95215869311552,-0.3195306889539473,12
12.962160360060011,-0.22849011695616073,12
12.9721620270045,-0.11424574224992659,12
12.982163693948992,-0.034479661658474534,12
12.992165360893482,0.0743488606016911,12
13.002167027837974,0.18252147138066235,12
13.012168694782464,0.28716352096208037,12
13.022170361726955,0.3725722807554002,12
13.032172028671445,0.4650202304283605,12
13.042173695615936,0.5273608569086274,12
13.052175362560428,0.6266990153564412,12
13.062177029504918,0.6484262823180916,12
13.07217869644941,0.7100313756966173,12
13.0821803633939,0.7501684441412464,12
13.09218203033839,0.7792195357501525,12
13.10218369728288,0.8060317320613071,12
13.112185364227372,0.7962707974776466,12
13.122187031171862,0.7595417259048614,12
13.132188698116353,0.7373974522976766,12
13.142190365060843,0.7027156359701668,12
13.152192032005335,0.6643808569293977,12
13.162193698949826,0.6030926335774647,12
13.172195365894316,0.5635441809342252,12
13.182197032838808,0.5143632943808768,12
13.192198699783297,0.4436463067532459,12
13.202200366727789,0.3896039505206766,12
13.212202033672279,0.3267574920626864,12
13.22220370061677,0.2597907206505849,12
13.23220536756126,0.2223219782000534,12
13.242207034505752,0.19065124685259655,12
13.252208701450241,0.15005033525181838,12
13.262210368394733,0.08375753295429884,12
13.272212035339225,0.07151558102325545,12
13.282213702283714,0.04140938118369451,12
13.292215369228206,0.021864492126463683,12
13.302217036172696,0.013714423641259042,12
13.312218703117187,0.02185165359111963,12
13.322220370061677,-0.009843471449810934,12
13.332222037006169,-0.002683361543959216,12
13.342223703950658,0.006067909029696651,12
13.35222537089515,-0.006341000090967797,12
13.36222703783964,-0.014736265255568703,12
13.372228704784131,-0.007412817987975625,12
13.382230371728621,-0.0038243912565535665,12
13.392232038673113,-0.02213842846520873,12
13.402233705617604,-0.024392309282542518,12
13.412235372562094,-0.044649572471848274,12
13.422237039506586,-0.09499034561743758,12
13.432238706451075,-0.10340686163014878,12
13.442240373395567,-0.15711958073160526,12
13.452242040340057,-0.19363012799781545,12
13.462243707284548,-0.251286151743848,12
13.472245374229038,-0.302382444517706,12
13.48224704117353,-0.3427785858488933,12
13.49224870811802,-0.411795760609612,12
13.502250375062511,-0.4665678501855335,12
13.512252042007002,-0.5330218390048574,12
13.522253708951492,-0.5765629295487389,12
13.532255375895984,-0.6283929500552231,12
13.542257042840474,-0.6751800117079982,12
13.552258709784965,-0.7046336590036398,12
13.562260376729455,-0.7551412724415116,12
13.572262043673947,-0.7596220708656387,12
13.582263710618436,-0.7838242588682709,12
13.592265377562928,-0.7735812299562779,12
13.602267044507418,-0.764466152150981,12
13.61226871145191,-0.7380382573448776,12
13.6222703783964,-0.6857509604221268,12
13.63227204534089,-0.6449212330793563,12
13.642273712285382,-0.5941912665031138,12
13.652275379229872,-0.5112578627578699,12
13.662277046174363,-0.4486050249992476,12
13.672278713118853,-0.3504527046959083,12
13.682280380063345,-0.24641147128762317,12
13.692282047007835,-0.15794880477754505,12
13.702283713952326,-0.04384205344288864,12
13.712285380896816,0.06742888692994767,12
13.722287047841307,0.1571458718487233,12
13.732288714785797,0.270054741103184,12
13.742290381730289,0.37355021519987053,12
13.75229204867478,0.4541427676970835,12
13.76229371561927,0.5139110139412781,12
13.772295382563762,0.6085252486847349,12
13.782297049508252,0.6633945820684403,12
13.792298716452743,0.7242781764850774,12
13.802300383397233,0.7424906838168864,12
13.812302050341724,0.7714240639940171,12
13.822303717286214,0.7762110142746057,12
13.832305384230706,0.7670476415861549,12
13.842307051175196,0.7728727082563618,12
13.852308718119687,0.7568169396298144,12
13.862310385064179,0.6968977181964447,12
13.872312052008668,0.6631798771584542,12
13.88231371895316,0.6278732513460662,12
13.89231538589765,0.5785958339892598,12
13.902317052842141,0.4961393380008777,12
13.912318719786631,0.4707064373105208,12
13.922320386731123,0.3997873977968125,12
13.932322053675612,0.3468683433704867,12
13.942323720620104,0.2840169253388456,12
13.952325387564594,0.22262259216718955,12
13.962327054509085,0.18555981797247803,12
13.972328721453577,0.12942399388753664,12
13.982330388398067,0.09697217078994351,12
13.992332055342558,0.07998870983996599,12
14.002333722287048,0.06116205247160343,12
14.01233538923154,0.029277825672306725,12
14.02233705617603,0.030939653734248056,12
14.032338723120521,-0.0016709814587104604,12
14.04234039006501,-0.0183129648450985,12
14.052342057009502,0.008952944008365032,12
14.062343723953992,0.01608388760142486,12
14.072345390898484,-0.009675990102811342,12
14.082347057842973,0.015855336425150603,12
14.092348724787465,-0.0059796898686741515,12
14.102350391731957,0.011082088708498437,12
14.112352058676446,-0.01684559136743908,12
14.122353725620938,-0.03309857358216908,12
14.132355392565428,-0.05552563411891208,12
14.14235705950992,-0.05679554318333467,12
14.152358726454409,-0.11979435274378744,12
14.1623603933989,-0.13996556415653047,12
14.17236206034339,-0.1845804202628875,12
14.182363727287882,-0.259166694733321,12
14.192365394232372,-0.2887828147863384,12
14.202367061176863,-0.3503081652192783,12
14.212368728121355,-0.412851641995583,12
14.222370395065845,-0.4536832066372327,12
14.232372062010336,-0.5134343289394714,12
14.242373728954826,-0.5725967753025856,12
14.252375395899318,-0.6243650532553036,12
14.262377062843807,-0.6616094946771848,12
14.272378729788299,-0.7038695865683599,12
14.282380396732789,-0.7522412182628445,12
14.29238206367728,-0.7601479721284319,12
14.30238373062177,-0.7867275426462691,12
14.312385397566262,-0.7672399148406125,12
14.322387064510753,-0.7772587962180598,12
14.332388731455243,-0.7451751707926684,12
14.342390398399735,-0.6939421433306642,12
14.352392065344224,-0.6522553833647571,12
14.362393732288716,-0.6148590600367765,12
14.372395399233206,-0.5255226113443218,12
14.382397066177697,-0.44760993753812767,12
14.392398733122187,-0.36385674031629256,12
14.402400400066679,-0.26477654619486707,12
14.412402067011168,-0.1514839417926475,12
14.42240373395566,-0.044611295041413146,12
14.432405400900151,0.04113455918824013,12
14.442407067844641,0.14663440385560703,12
14.452408734789133,0.25283155370115007,12
14.462410401733623,0.37635908139424384,12
14.472412068678114,0.45310173267322235,12
14.482413735622604,0.5301909900720595,12
14.492415402567095,0.5856760099512417,12
14.502417069511585,0.6580827994491986,12
14.512418736456077,0.7073496653965726,12
14.522420403400567,0.7372933359349503,12
14.532422070345058,0.7642371971674169,12
14.542423737289548,0.7713481619354874,12
14.55242540423404,0.7761412150011601,12
14.562427071178531,0.7698805015973801,12
14.57242873812302,0.7319024676756473,12
14.582430405067512,0.7318100927998631,12
14.592432072012002,0.677993184172471,12
14.602433738956494,0.6520882511942264,12
14.612435405900984,0.5849727550338364,12
14.622437072845475,0.5387637078242724,12
14.632438739789965,0.4748454446146644,12
14.642440406734456,0.4041577064763322,12
14.652442073678946,0.3331978882326401,12
14.662443740623438,0.2939332096116529,12
14.67244540756793,0.23115278028162498,12
14.68244707451242,0.18532889648237552,12
14.69244874145691,0.12558635113080102,12
14.7024504084014,0.10345193942791836,12
14.712452075345892,0.08109395215659262,12
14.722453742290382,0.05722150061528244,12
14.732455409234873,0.03099833255726156,12
14.742457076179363,0.010870935602281251,12
14.752458743123855,0.018245015803640328,12
14.762460410068345,-0.001253251371818329,12
14.772462077012836,0.012871844656806372,12
14.782463743957328,-0.003622784518320091,12
14.792465410901817,-0.010698093099586326,12
14.802467077846309,0.0010008960591891961,12
14.812468744790799,-0.01825799054666003,12
14.82247041173529,-0.009880935636773254,12
14.83247207867978,-0.023874550224126056,12
14.842473745624272,-0.035276530607467674,12
14.852475412568761,-0.03977430615463135,12
14.862477079513253,-0.07976596278602485,12
14.872478746457743,-0.09445522127824478,12
14.882480413402234,-0.1492621070006292,12
14.892482080346724,-0.18037710834035073,12
14.902483747291216,-0.23037332443935163,12
14.912485414235707,-0.2922245621860302,12
14.922487081180197,-0.342589796436961,12
14.932488748124689,-0.4002504693538931,12
14.942490415069178,-0.4510851800101838,12
14.95249208201367,-0.5089958023726042,12
14.96249374895816,-0.5809495319851699,12
14.972495415902651,-0.6144397038478452,12
14.982497082847141,-0.6761715339754304,12
14.992498749791633,-0.722384715672626,12
15.002500416736122,-0.7343675352167399,12
15.012502083680614,-0.7658735083547327,12
15.022503750625106,-0.7918735311280015,12
15.032505417569595,-0.7850559321314077,12
15.042507084514087,-0.7681922859093283,12
15.052508751458577,-0.7514626917616821,12
15.062510418403068,-0.7025327275307414,12
15.072512085347558,-0.690767774508474,12
15.08251375229205,-0.6103317957451676,12
15.09251541923654,-0.5419596925210257,12
15.102517086181031,-0.4484533542262155,12
15.11251875312552,-0.3762204061262321,12
15.122520420070012,-0.27830117968323614,12
15.132522087014504,-0.16545540710736562,12
15.142523753958994,-0.050537885308106205,12
15.152525420903485,0.03628068658525627,12
15.162527087847975,0.12691198153059685,12
15.172528754792467,0.2519807902195442,12
15.182530421736956,0.33321633390163363,12
15.192532088681448,0.4216835912488912,12
15.202533755625938,0.5105893451404071,12
15.21253542257043,0.578591567244033,12
15.222537089514919,0.6491534832213456,12
15.23253875645941,0.7059053582571668,12
15.2425404234039,0.7428028537977205,12
15.252542090348392,0.8040678632192264,12
15.262543757292883,0.749068400785896,12
15.272545424237373,0.7929091366839335,12
15.282547091181865,0.7826773925602012,12
15.292548758126355,0.7543531639984253,12
15.302550425070846,0.7302499472696038,12
15.312552092015336,0.6707595677860934,12
15.322553758959828,0.6340634872540327,12
15.332555425904317,0.5889957747341428,12
15.342557092848809,0.5071090608559449,12
15.352558759793299,0.4714402823018754,12
15.36256042673779,0.4077853041844513,12
15.372562093682282,0.35361886082600213,12
15.382563760626772,0.2943390404749091,12
15.392565427571263,0.23492745983065338,12
15.402567094515753,0.18525972466810378,12
15.412568761460244,0.13218164344709268,12
15.422570428404734,0.11111433867818347,12
15.432572095349226,0.08876633383187509,12
15.442573762293716,0.062092772477803204,12
15.452575429238207,0.045158795981321435,12
15.462577096182697,0.028177720862432025,12
15.472578763127188,0.017231807481835126,12
15.48258043007168,-0.0032142635997656974,12
15.49258209701617,-0.016566542744988935,12
15.502583763960661,0.004167903173408147,12
15.512585430905151,0.007979117719036014,12
15.522587097849643,0.0029434296567685102,12
15.532588764794133,-0.01608189661249565,12
15.542590431738624,0.0008347054501331771,12
15.552592098683114,-0.02785947250996406,12
15.562593765627605,-0.03008695882038624,12
15.572595432572095,-0.039719307453937994,12
15.582597099516587,-0.07519788820576906,12
15.592598766461077,-0.09278132750234676,12
15.602600433405568,-0.14355105456845582,12
15.61260210035006,-0.17779316963687827,12
15.62260376729455,-0.21908322733609192,12
15.632605434239041,-0.2454600732476418,12
15.64260710118353,-0.3408743432645743,12
15.652608768128022,-0.3815555471289641,12
15.662610435072512,-0.4401217944120843,12
15.672612102017004,-0.5257049492374707,12
15.682613768961494,-0.5684764112021161,12
15.692615435905985,-0.5978418193358551,12
15.702617102850475,-0.6744611015253941,12
15.712618769794966,-0.6891367597140527,12
15.722620436739458,-0.755917216849727,12
15.732622103683948,-0.7662269028104505,12
15.74262377062844,-0.7906913944356146,12
15.752625437572929,-0.7966914211409916,12
15.76262710451742,-0.7789803097616145,12
15.77262877146191,-0.7505395139714165,12
15.782630438406402,-0.7042529249924885,12
15.792632105350892,-0.6713000848469775,12
15.802633772295383,-0.622943590869906,12
15.812635439239873,-0.5236456426389486,12
15.822637106184365,-0.44119980735155045,12
15.832638773128856,-0.3700889050922235,12
15.842640440073346,-0.2718526009132065,12
15.852642107017838,-0.20736202983082835,12
15.862643773962327,-0.06943346978795453,12
15.872645440906819,0.029135763674734267,12
15.882647107851309,0.1463762430650366,12
15.8926487747958,0.2307799963471581,12
15.90265044174029,0.3281467444950622,12
15.912652108684782,0.4303479315538189,12
15.922653775629271,0.5072157051676357,12
15.932655442573763,0.5760154961369188,12
15.942657109518253,0.6396197879195626,12
15.952658776462744,0.681413616538473,12
15.962660443407236,0.732450471665576,12
15.972662110351726,0.7575969280591531,12
15.982663777296217,0.7738508764742479,12
15.992665444240707,0.7738741545445933,12
16.002667111185197,0.7666518305601918,12
16.01266877812969,0.7570695728703364,12
16.02267044507418,0.7206909155264903,12
16.03267211201867,0.6720126953472199,12
16.04267377896316,0.6563758274744441,12
16.052675445907653,0.5837881764635708,12
16.062677112852143,0.5262224775332369,12
16.072678779796632,0.48813926806255586,12
16.082680446741126,0.4217562700532214,12
16.092682113685616,0.372432932813552,12
16.102683780630105,0.31754914954106195,12
16.112685447574595,0.25203573700245524,12
16.12268711451909,0.2139147450569016,12
16.132688781463578,0.15215113619856788,12
16.142690448408068,0.1348357476178604,12
16.152692115352558,0.07432245395941067,12
16.16269378229705,0.05615688354093496,12
16.17269544924154,0.035766296960571126,12
16.18269711618603,0.02597061460945148,12
16.192698783130524,0.005939517829607263,12
16.202700450075014,0.022055643331661694,12
16.212702117019504,0.009978435819942203,12
16.222703783963993,-0.007538543176699702,12
16.232705450908487,0.00950951640729437,12
16.242707117852976,-0.008088538184921244,12
16.252708784797466,0.0016830004314462945,12
16.262710451741956,-0.02388649243183818,12
16.27271211868645,-0.017266184976656825,12
16.28271378563094,-0.03144501273486029,12
16.29271545257543,-0.04205267287541488,12
16.302717119519922,-0.05424193865310403,12
16.312718786464412,-0.09264347108920207,12
16.322720453408902,-0.14090437587956398,12
16.33272212035339,-0.16410075436736898,12
16.342723787297885,-0.22123089457641767,12
16.352725454242375,-0.2706967172538387,12
16.362727121186865,-0.3308334576905332,12
16.372728788131354,-0.38920588693893987,12
16.382730455075848,-0.44704493348960606,12
16.392732122020337,-0.518735510939651,12
16.402733788964827,-0.5632775196454884,12
16.41273545590932,-0.6214807547711849,12
16.42273712285381,-0.6555237495912463,12
16.4327387897983,-0.7098353681971294,12
16.44274045674279,-0.7427507605811476,12
16.452742123687283,-0.7678473381370806,12
16.462743790631773,-0.7781013202427131,12
16.472745457576263,-0.7833500553425382,12
16.482747124520753,-0.7687584254665293,12
16.492748791465246,-0.7586638936214838,12
16.502750458409736,-0.704821744797664,12
16.512752125354226,-0.6659692514656119,12
16.522753792298715,-0.6325535062362027,12
16.53275545924321,-0.5579148400327522,12
16.5427571261877,-0.4560956573999518,12
16.55275879313219,-0.3895397590429688,12
16.56276046007668,-0.3062228400699234,12
16.57276212702117,-0.20933847233771968,12
16.58276379396566,-0.07105288576333907,12
16.59276546091015,0.0095207877105713,12
16.602767127854644,0.12213069023051275,12
16.612768794799134,0.22259014848486477,12
16.622770461743624,0.31634704515923023,12
16.632772128688114,0.40004709511267905,12
16.642773795632607,0.48924198133801255,12
16.652775462577097,0.573471798048656,12
16.662777129521587,0.6362663926240643,12
16.67277879646608,0.6860796410546625,12
16.68278046341057,0.7387243369832801,12
16.69278213035506,0.7564747021182993,12
16.70278379729955,0.7598039214804257,12
16.712785464244043,0.7729761034174897,12
16.722787131188532,0.7697356235647972,12
16.732788798133022,0.7358581405335383,12
16.742790465077512,0.740525348064568,12
16.752792132022005,0.68109629198851,12
16.762793798966495,0.6458515443840882,12
16.772795465910985,0.5710856513470964,12
16.782797132855478,0.5403484135768105,12
16.792798799799968,0.5006301528235213,12
16.802800466744458,0.44205635931420495,12
16.812802133688947,0.37756143878229775,12
16.82280380063344,0.3035398811156203,12
16.83280546757793,0.280826681522587,12
16.84280713452242,0.22145542671223434,12
16.85280880146691,0.1602456885599196,12
16.862810468411404,0.12490353870677487,12
16.872812135355893,0.08725987962463311,12
16.882813802300383,0.06400336353753275,12
16.892815469244876,0.05600290584778382,12
16.902817136189366,0.03153256144384415,12
16.912818803133856,0.014972430358930418,12
16.922820470078346,-0.008437071168358604,12
16.93282213702284,0.002271150722027877,12
16.94282380396733,-0.007837360505249835,12
16.95282547091182,0.0017286573452035031,12
16.96282713785631,0.005640971791732676,12
16.972828804800802,0.00131075455973636,12
16.98283047174529,-0.001673333675972871,12
16.99283213868978,-0.017802309972934933,12
17.002833805634275,-0.03927094258414081,12
17.012835472578764,-0.037888375652751285,12
17.022837139523254,-0.05457730526939537,12
17.032838806467744,-0.08038231395455396,12
17.042840473412237,-0.1258671045612901,12
17.052842140356727,-0.16176076757625626,12
17.062843807301217,-0.2203075784604249,12
17.072845474245707,-0.27878961264471097,12
17.0828471411902,-0.336275255726055,12
17.09284880813469,-0.38110170178387687,12
17.10285047507918,-0.42760269715277555,12
17.112852142023673,-0.49958397628095297,12
17.122853808968163,-0.5306390658382177,12
17.132855475912653,-0.5878012391063343,12
17.142857142857142,-0.6530643333226446,12
17.152858809801636,-0.6861024323006797,12
17.162860476746125,-0.7279298506598273,12
17.172862143690615,-0.7580245670285495,12
17.182863810635105,-0.7618845019756507,12
17.1928654775796,-0.7776468126664043,12
17.202867144524088,-0.7957524585501017,12
17.212868811468578,-0.7631093860375951,12
17.222870478413068,-0.721815372692501,12
17.23287214535756,-0.6743322075227063,12
17.24287381230205,-0.6188239013427598,12
17.25287547924654,-0.5416450385436865,12
17.262877146191034,-0.471137188012976,12
17.272878813135524,-0.4099228631463812,12
17.282880480080014,-0.31779609219664445,12
17.292882147024503,-0.20178719011466545,12
17.302883813968997,-0.11183465146229049,12
17.312885480913486,0.004017985102208984,12
17.322887147857976,0.0983521794515388,12
17.332888814802466,0.19829866128387197,12
17.34289048174696,0.30445142410917647,12
17.35289214869145,0.40160997515350005,12
17.36289381563594,0.4903197721938791,12
17.372895482580432,0.5662467277621539,12
17.382897149524922,0.6422067476835325,12
17.392898816469412,0.6791686112215994,12
17.4029004834139,0.6989902455970305,12
17.412902150358395,0.749756575662299,12
17.422903817302885,0.7702821060789833,12
17.432905484247375,0.7652711532383292,12
17.442907151191864,0.7697776373898371,12
17.452908818136358,0.745755738968637,12
17.462910485080847,0.7343011244246643,12
17.472912152025337,0.6846128005936221,12
17.48291381896983,0.652829949691697,12
17.49291548591432,0.6007496165967021,12
17.50291715285881,0.5649951331925764,12
17.5129188198033,0.5040970519602695,12
17.522920486747793,0.44916216414222565,12
17.532922153692283,0.37298853797476667,12
17.542923820636773,0.31841982054455154,12
17.552925487581263,0.2526354971097078,12
17.562927154525756,0.2224632714311959,12
17.572928821470246,0.16520320184285694,12
17.582930488414735,0.11166648768723714,12
17.59293215535923,0.08447674772585564,12
17.60293382230372,0.0693730995603104,12
17.61293548924821,0.042306621349595425,12
17.622937156192698,0.02538872956678769,12
17.63293882313719,0.014810998259856652,12
17.64294049008168,-0.0006251557819097631,12
17.65294215702617,0.007006651169789963,12
17.66294382397066,-0.00456207973147698,12
17.672945490915154,0.004897725921145155,12
17.682947157859644,-0.006584132922047816,12
17.692948824804134,0.0009898567993479241,12
17.702950491748627,-0.0003782954869591647,12
17.712952158693117,6.268875673765516e-05,12
17.722953825637607,-0.04130951666433335,12
17.732955492582096,-0.04016493649449123,12
17.74295715952659,-0.06903223322101565,12
17.75295882647108,-0.08481166550745002,12
17.76296049341557,-0.13023487388202568,12
17.77296216036006,-0.17802388530877994,12
17.782963827304552,-0.21549950567711518,12
17.792965494249042,-0.2396968385163621,12
17.802967161193532,-0.28810736467395537,12
17.812968828138025,-0.3794848060648677,12
17.822970495082515,-0.41732813097536364,12
17.832972162027005,-0.48411882025789366,12
17.842973828971495,-0.5381537575951303,12
17.852975495915988,-0.5988044949726629,12
17.862977162860478,-0.6352056283271582,12
17.872978829804968,-0.7016450438190732,12
17.882980496749457,-0.7313693740096726,12
17.89298216369395,-0.7565921009889373,12
17.90298383063844,-0.773046092139594,12
17.91298549758293,-0.7918861723411362,12
17.92298716452742,-0.7801699871770434,12
17.932988831471913,-0.7620635277186378,12
17.942990498416403,-0.718615075390287,12
17.952992165360893,-0.7111572830236559,12
17.962993832305386,-0.6285930066580304,12
17.972995499249876,-0.5680479146547452,12
17.982997166194366,-0.4835170524540177,12
17.992998833138856,-0.4124057706853985,12
18.00300050008335,-0.31105027843277266,12
18.01300216702784,-0.21866688992836672,12
18.02300383397233,-0.10960627622513416,12
18.03300550091682,-0.033642877889063595,12
18.04300716786131,0.08222144658243527,12
18.0530088348058,0.18597380402452793,12
18.06301050175029,0.2742148714715057,12
18.073012168694785,0.36979038179535995,12
18.083013835639274,0.46704770210359325,12
18.093015502583764,0.5600156213824065,12
18.103017169528254,0.613219592212743,12
18.113018836472747,0.6736386058724447,12
18.123020503417237,0.7240580360187218,12
18.133022170361727,0.7718949604661848,12
18.143023837306217,0.78029256908088,12
18.15302550425071,0.7880845543114402,12
18.1630271711952,0.7716449994076611,12
18.17302883813969,0.7553491346698772,12
18.183030505084183,0.7246411835956071,12
18.193032172028673,0.6997113388593499,12
18.203033838973163,0.6484263762828955,12
18.213035505917652,0.6257949858863118,12
18.223037172862146,0.5415340870814599,12
18.233038839806635,0.46788946933204245,12
18.243040506751125,0.4298916267790833,12
18.253042173695615,0.3878949579960476,12
18.26304384064011,0.3398840661764918,12
18.273045507584598,0.2628951836808401,12
18.283047174529088,0.2317986587591248,12
18.29304884147358,0.15407265908452883,12
18.30305050841807,0.14967359855014284,12
18.31305217536256,0.08247693309676307,12
18.32305384230705,0.05352404980390789,12
18.333055509251544,0.04343935245711117,12
18.343057176196034,0.028753933841715318,12
18.353058843140523,0.008692613570840665,12
18.363060510085013,0.018786559787506533,12
18.373062177029507,-0.004971490464237323,12
18.383063843973996,-0.00529170719369228,12
18.393065510918486,0.0037805723856827707,12
18.40306717786298,0.006105459062485012,12
18.41306884480747,-0.009551804235200387,12
18.42307051175196,0.002020670375378457,12
18.43307217869645,-0.011242809894474657,12
18.443073845640942,-0.009362328756789533,12
18.453075512585432,-0.03266501214154175,12
18.463077179529922,-0.05845228104749419,12
18.47307884647441,-0.08895447444135691,12
18.483080513418905,-0.10813908914868939,12
18.493082180363395,-0.15853367366577945,12
18.503083847307884,-0.19967255561250263,12
18.513085514252378,-0.24333616797481325,12
18.523087181196868,-0.3026991442491958,12
18.533088848141357,-0.35910959766307654,12
18.543090515085847,-0.4229394836362431,12
18.55309218203034,-0.46893908820200303,12
18.56309384897483,-0.5219855305435278,12
18.57309551591932,-0.5939111527870862,12
18.58309718286381,-0.6472076623909955,12
18.593098849808303,-0.6751070590247834,12
18.603100516752793,-0.7345440009903932,12
18.613102183697283,-0.7469060367466525,12
18.623103850641776,-0.7639624961974497,12
18.633105517586266,-0.7877432223372509,12
18.643107184530756,-0.7663333477361545,12
18.653108851475245,-0.762037077221176,12
18.66311051841974,-0.7299181158554333,12
18.67311218536423,-0.7134795802233355,12
18.68311385230872,-0.6362594512097263,12
18.693115519253208,-0.5718412581522796,12
18.7031171861977,-0.5079688891068629,12
18.71311885314219,-0.4307434418149571,12
18.72312052008668,-0.3167289064533191,12
18.73312218703117,-0.23037201087522655,12
18.743123853975664,-0.14377273675058208,12
18.753125520920154,-0.015848289872801367,12
18.763127187864644,0.07966287171103745,12
18.773128854809137,0.15573285081878893,12
18.783130521753627,0.26753218263063866,12
18.793132188698117,0.3715928127434785,12
18.803133855642606,0.44148642739774324,12
18.8131355225871,0.5328086272217796,12
18.82313718953159,0.6038289388156484,12
18.83313885647608,0.6505715105847989,12
18.84314052342057,0.7393591026471861,12
18.853142190365062,0.7533262983469464,12
18.863143857309552,0.7665796979131655,12
18.873145524254042,0.7878187620756164,12
18.883147191198535,0.7778147860086687,12
18.893148858143025,0.7665068939306046,12
18.903150525087515,0.7405643528490449,12
18.913152192032005,0.7055767093124781,12
18.923153858976498,0.6623528345648422,12
18.933155525920988,0.6056252899789893,12
18.943157192865478,0.5532414069418436,12
18.953158859809967,0.5120008778642136,12
18.96316052675446,0.46305707879835356,12
18.97316219369895,0.3872996581551956,12
18.98316386064344,0.3325329894404953,12
18.993165527587934,0.2744255925546831,12
19.003167194532423,0.23969894489473753,12
19.013168861476913,0.18100800368529918,12
19.023170528421403,0.14193932466355896,12
19.033172195365896,0.0990428084184281,12
19.043173862310386,0.0859326286067151,12
19.053175529254876,0.04274315112410343,12
19.063177196199366,0.03855010633861776,12
19.07317886314386,0.0183942426076441,12
19.08318053008835,0.013850723774086408,12
19.09318219703284,-0.0010837824148335479,12
19.103183863977332,-0.014384295858326618,12
19.11318553092182,-0.014935743585245465,12
19.12318719786631,-0.002734436881479483,12
19.1331888648108,0.0057863149810399575,12
19.143190531755295,-0.013660754793147947,12
19.153192198699784,-0.009817459453298887,12
19.163193865644274,-0.025946353169343395,12
19.173195532588764,-0.02912190615203249,12
19.183197199533257,-0.0731663915574137,12
19.193198866477747,-0.07641444025600823,12
19.203200533422237,-0.11764110825305886,12
19.21320220036673,-0.14479813116925142,12
19.22320386731122,-0.20818167536218948,12
19.23320553425571,-0.2260243514262989,12
19.2432072012002,-0.28489361330109,12
19.253208868144693,-0.34841567004294777,12
19.263210535089183,-0.4019386045013186,12
19.273212202033672,-0.47243903717286917,12
19.283213868978162,-0.5448735708130695,12
19.293215535922656,-0.5914699005637947,12
19.303217202867145,-0.6288708033299939,12
19.313218869811635,-0.6595935294118558,12
19.32322053675613,-0.7193051029423829,12
19.33322220370062,-0.752643039182852,12
19.343223870645108,-0.7733153421240435,12
19.353225537589598,-0.7782800055042975,12
19.36322720453409,-0.7877183892825447,12
19.37322887147858,-0.7451229932288989,12
19.38323053842307,-0.7460764072454351,12
19.39323220536756,-0.6970474540191114,12
19.403233872312054,-0.6530038053646621,12
19.413235539256544,-0.5790079555024243,12
19.423237206201033,-0.5160273540327512,12
19.433238873145523,-0.43213124639448236,12
19.443240540090017,-0.32985544318768534,12
19.453242207034506,-0.23419742433711246,12
19.463243873978996,-0.13239178502823373,12
19.47324554092349,-0.03355340484528986,12
19.48324720786798,0.06082822457349346,12
19.49324887481247,0.17828938809946096,12
19.50325054175696,0.28130527654071835,12
19.513252208701452,0.36275569310764527,12
19.523253875645942,0.4502019714258292,12
19.53325554259043,0.5386326354093008,12
19.54325720953492,0.5911357235019965,12
19.553258876479415,0.660976988329399,12
19.563260543423905,0.7191178782547395,12
19.573262210368394,0.7442280280795047,12
19.583263877312888,0.7850422993413345,12
19.593265544257378,0.7715038814277019,12
19.603267211201867,0.7706797938722981,12
19.613268878146357,0.7746624681323071,12
19.62327054509085,0.7284908418641234,12
19.63327221203534,0.6942411740979831,12
19.64327387897983,0.6854576515088282,12
19.65327554592432,0.6130400503075424,12
19.663277212868813,0.5588356647762572,12
19.673278879813303,0.5293617407060602,12
19.683280546757793,0.4652070165607823,12
19.693282213702286,0.3967345820628631,12
19.703283880646776,0.31760268694515686,12
19.713285547591266,0.2776720500938582,12
19.723287214535755,0.22602154615091868,12
19.73328888148025,0.17734194452397287,12
19.74329054842474,0.1544974887064723,12
19.75329221536923,0.10680284080843169,12
19.763293882313718,0.08297792616043982,12
19.77329554925821,0.05248828724677885,12
19.7832972162027,0.018344547942018802,12
19.79329888314719,0.019186755041310993,12
19.803300550091684,-0.00020492812739247857,12
19.813302217036174,0.012590257784262586,12
19.823303883980664,0.0005685723012589813,12
19.833305550925154,0.02500673995285121,12
19.843307217869647,-0.0007152317012744897,12
19.853308884814137,-0.0002810984253428381,12
19.863310551758627,-0.01344258824692255,12
19.873312218703116,-0.0030911291476841928,12
19.88331388564761,-0.016180767171499192,12
19.8933155525921,-0.023177471749657876,12
19.90331721953659,-0.04538271343930669,12
19.913318886481083,-0.07024542972039587,12
19.923320553425572,-0.07235884531862743,12
19.933322220370062,-0.1437316295779761,12
19.943323887314552,-0.179872277805469,12
19.953325554259045,-0.2505399687398085,12
19.963327221203535,-0.2878191751911484,12
19.973328888148025,-0.35368643117986737,12
19.983330555092515,-0.40190570788521124,12
19.993332222037008,-0.46821155165735306,12
20.003333888981498,-0.5169209447898298,12
20.013335555925988,-0.5745871113084212,12
20.02333722287048,-0.6040185106387667,12
20.03333888981497,-0.662313048047019,12
20.04334055675946,-0.7115844817581032,12
20.05334222370395,-0.7446073051010121,12
20.063343890648444,-0.7592806081082382,12
20.073345557592933,-0.7744794101134214,12
20.083347224537423,-0.7966656356838816,12
20.093348891481913,-0.7609393289812586,12
20.103350558426406,-0.7575593980162489,12
20.113352225370896,-0.7015481903366972,12
20.123353892315386,-0.646214749646857,12
20.133355559259876,-0.586826636733767,12
20.14335722620437,-0.5297544576272103,12
20.15335889314886,-0.44838452582789257,12
20.16336056009335,-0.33943745925466556,12
20.173362227037842,-0.26257529364062376,12
20.18336389398233,-0.15035565998397338,12
20.19336556092682,-0.05023248024134201,12
20.20336722787131,0.047667992177299154,12
20.213368894815805,0.1534116371884006,12
20.223370561760294,0.2550952935689726,12
20.233372228704784,0.3538121054379934,12
20.243373895649274,0.45639191029248516,12
20.253375562593767,0.5229614302364916,12
20.263377229538257,0.5838394253641923,12
20.273378896482747,0.6607178450796556,12
20.28338056342724,0.701733304005308,12
20.29338223037173,0.7418422670268258,12
20.30338389731622,0.7679917704072078,12
20.31338556426071,0.7664198464889538,12
20.323387231205203,0.77299658832983,12
20.333388898149693,0.7802829201570376,12
20.343390565094182,0.7403976318476986,12
20.353392232038672,0.7013533345465317,12
20.363393898983166,0.669869087039481,12
20.373395565927655,0.625175662019294,12
20.383397232872145,0.5688721253348615,12
20.39339889981664,0.5128671452361475,12
20.40340056676113,0.46022254904374693,12
20.413402233705618,0.4026915798363521,12
20.423403900650108,0.345082023338318,12
20.4334055675946,0.294865690134879,12
20.44340723453909,0.24161093328505667,12
20.45340890148358,0.18288773625652446,12
20.46341056842807,0.15856830910053463,12
20.473412235372564,0.09936560784083989,12
20.483413902317054,0.07730956333722712,12
20.493415569261543,0.05019242989293067,12
20.503417236206037,0.02933174220137312,12
20.513418903150527,0.024172514243664234,12
20.523420570095016,0.007321668859258867,12
20.533422237039506,0.013557468735972815,12
20.543423903984,-0.009285052632786256,12
20.55342557092849,-0.012294317629359277,12
20.56342723787298,0.009804910934041783,12
20.57342890481747,-0.0056053614091690135,12
20.583430571761962,-0.012525210399856195,12
20.593432238706452,0.012490923868779362,12
20.60343390565094,-0.03602273700745316,12
20.613435572595435,-0.028177986918249007,12
20.623437239539925,-0.021114754039275627,12
20.633438906484415,-0.07242493389252791,12
20.643440573428904,-0.09415356855882154,12
20.653442240373398,-0.13168008316631893,12
20.663443907317887,-0.16572632518131905,12
20.673445574262377,-0.22407432723218773,12
20.683447241206867,-0.28323527085964606,12
20.69344890815136,-0.3118010488551888,12
20.70345057509585,-0.40129594030183297,12
20.71345224204034,-0.4657929602734479,12
20.723453908984833,-0.5104234763224533,12
20.733455575929323,-0.5721125688870495,12
20.743457242873813,-0.5979791179648696,12
20.753458909818303,-0.6728289289423957,12
20.763460576762796,-0.7114052644298318,12
20.773462243707286,-0.759324488413118,12
20.783463910651776,-0.7607448526517416,12
20.793465577596265,-0.7781043886463772,12
20.80346724454076,-0.7656265031845584,12
20.81346891148525,-0.7663272815351639,12
20.82347057842974,-0.7678428428455613,12
20.83347224537423,-0.710647580396034,12
20.84347391231872,-0.6675073785268419,12
20.85347557926321,-0.6108063533313944,12
20.8634772462077,-0.5220668940892201,12
20.873478913152194,-0.4584370407932449,12
20.883480580096684,-0.3722513658467266,12
20.893482247041174,-0.2753816623320203,12
20.903483913985664,-0.16199678062120565,12
20.913485580930157,-0.07081397708192733,12
20.923487247874647,0.04702839110077161,12
20.933488914819137,0.1425909629571584,12
20.943490581763626,0.24862392095740352,12
20.95349224870812,0.33932592325715216,12
20.96349391565261,0.44430271508807256,12
20.9734955825971,0.510060877369861,12
20.983497249541593,0.597060019058703,12
20.993498916486082,0.6600107499162146,12
21.003500583430572,0.7052864408171642,12
21.013502250375062,0.7338097161304618,12
21.023503917319555,0.7709362001566101,12
21.033505584264045,0.7921559829089587,12
21.043507251208535,0.7737703366082074,12
21.053508918153025,0.7633345212424331,12
21.063510585097518,0.7381535261976184,12
21.073512252042008,0.7290897660397089,12
21.083513918986498,0.6495160510971247,12
21.09351558593099,0.614202371814093,12
21.10351725287548,0.580903534632845,12
21.11351891981997,0.5193321054449404,12
21.12352058676446,0.45796251876398547,12
21.133522253708954,0.40755520961936204,12
21.143523920653443,0.36924752855218135,12
21.153525587597933,0.28836425615841255,12
21.163527254542423,0.24318879538260627,12
21.173528921486916,0.17439210877977546,12
21.183530588431406,0.15525687373291658,12
21.193532255375896,0.10823016826797914,12
21.20353392232039,0.08590266562126282,12
21.21353558926488,0.05866558091588935,12
21.22353725620937,0.03907658751601674,12
21.23353892315386,0.023597753490928783,12
21.243540590098352,0.008529469668771997,12
21.25354225704284,0.009945410112455772,12
21.26354392398733,0.004843094452278611,12
21.27354559093182,0.004043241915453032,12
21.283547257876315,-0.003157941457824453,12
21.293548924820804,0.002509047418510626,12
21.303550591765294,0.0008652184259988222,12
21.313552258709787,-0.005946223159752139,12
21.323553925654277,-0.02948912408691677,12
21.333555592598767,-0.03359942752936029,12
21.343557259543257,-0.04453537801659005,12
21.35355892648775,-0.07773068836620559,12
21.36356059343224,-0.10305146865119731,12
21.37356226037673,-0.1386874433209308,12
21.38356392732122,-0.1795524245687885,12
21.393565594265713,-0.20609303458800565,12
21.403567261210203,-0.2812519137158959,12
21.413568928154692,-0.33226711088361205,12
21.423570595099186,-0.3651499185532293,12
21.433572262043675,-0.4235659013601554,12
21.443573928988165,-0.4995509135096387,12
21.453575595932655,-0.5512086818047834,12
21.46357726287715,-0.6118062884016686,12
21.473578929821638,-0.6682019036867972,12
21.483580596766128,-0.7019721224025274,12
21.493582263710618,-0.7430052593643544,12
21.50358393065511,-0.7302626752894178,12
21.5135855975996,-0.7721710987107073,12
21.52358726454409,-0.768571073372449,12
21.533588931488584,-0.7749008946752187,12
21.543590598433074,-0.7499054988681223,12
21.553592265377564,-0.7174576057581007,12
21.563593932322053,-0.6670629653548746,12
21.573595599266547,-0.6077232317215334,12
21.583597266211036,-0.5462806718526863,12
21.593598933155526,-0.46621681208754556,12
21.603600600100016,-0.3640684844916914,12
21.61360226704451,-0.27928328219986515,12
21.623603933989,-0.16889095304478252,12
21.63360560093349,-0.08163681381937198,12
21.64360726787798,0.0222257617855964,12
21.653608934822472,0.13259911095163215,12
21.663610601766962,0.2316341473094109,12
21.67361226871145,0.3214292763277006,12
21.683613935655945,0.41871315101456114,12
21.693615602600435,0.5142994018868912,12
21.703617269544925,0.581387414053218,12
21.713618936489414,0.6269977250709539,12
21.723620603433908,0.6970326990393867,12
21.733622270378397,0.7368225888903494,12
21.743623937322887,0.7433001271733313,12
21.753625604267377,0.773812422774185,12
21.76362727121187,0.7793514828334139,12
21.77362893815636,0.7520879970787625,12
21.78363060510085,0.751516043001266,12
21.793632272045343,0.7305896895797146,12
21.803633938989833,0.6868573568614156,12
21.813635605934323,0.6344021184075276,12
21.823637272878813,0.5902280217820622,12
21.833638939823306,0.5226127700505405,12
21.843640606767796,0.46899132847161185,12
21.853642273712286,0.4291950750737764,12
21.863643940656775,0.3726837584648334,12
21.87364560760127,0.31038299557375876,12
21.88364727454576,0.25598338743767624,12
21.893648941490248,0.19906618553502295,12
21.90365060843474,0.16783152092616374,12
21.91365227537923,0.11854432087130981,12
21.92365394232372,0.07348965248462276,12
21.93365560926821,0.04980938661713408,12
21.943657276212704,0.04652952862561638,12
21.953658943157194,0.023572052562524703,12
21.963660610101684,-0.0015117928660592726,12
21.973662277046174,0.0025257205985990557,12
21.983663943990667,-0.004436660357575887,12
21.993665610935157,0.0119727587739581,12
22.003667277879646,-0.014106653589312576,12
22.01366894482414,-0.013728344459221687,12
22.02367061176863,0.013913771337383782,12
22.03367227871312,0.008094140749853937,12
22.04367394565761,-0.008222269498665773,12
22.053675612602103,-0.012408572832680431,12
22.063677279546592,-0.039455595302139934,12
22.073678946491082,-0.06915521058003675,12
22.083680613435572,-0.07805704843457653,12
22.093682280380065,-0.13354550575333868,12
22.103683947324555,-0.1431831595893357,12
22.113685614269045,-0.214170883450008,12
22.123687281213538,-0.26577581078417895,12
22.133688948158028,-0.31698361025367744,12
22.143690615102518,-0.3717542964318296,12
22.153692282047007,-0.43905783476219573,12
22.1636939489915,-0.5059051127563927,12
22.17369561593599,-0.5761778886370289,12
22.18369728288048,-0.6145343114821697,12
22.19369894982497,-0.6774021452515939,12
22.203700616769463,-0.712913088463105,12
22.213702283713953,-0.7473888386736519,12
22.223703950658443,-0.7537824242383482,12
22.233705617602936,-0.7852125620007407,12
22.243707284547426,-0.7815990411284752,12
22.253708951491916,-0.7800247470071798,12
22.263710618436406,-0.7464651428596895,12
22.2737122853809,-0.7191448373187441,12
22.28371395232539,-0.661997870868188,12
22.29371561926988,-0.6268177281573142,12
22.30371728621437,-0.5533574401141513,12
22.313718953158862,-0.4555185207775127,12
22.32372062010335,-0.38643139681814037,12
22.33372228704784,-0.30189193452914376,12
22.34372395399233,-0.19932043713648695,12
22.353725620936824,-0.09079999343667443,12
22.363727287881314,0.012232900423901967,12
22.373728954825804,0.10278103802041302,12
22.383730621770297,0.2128422915050162,12
22.393732288714787,0.3082029974655721,12
22.403733955659277,0.41886087356224144,12
22.413735622603767,0.49700892306353717,12
22.42373728954826,0.5788041346641237,12
22.43373895649275,0.6221046381986045,12
22.44374062343724,0.6830333571056109,12
22.45374229038173,0.7499792825318883,12
22.463743957326223,0.7452420387223543,12
22.473745624270713,0.7773419050428796,12
22.483747291215202,0.7722441008601871,12
22.493748958159696,0.7778228742905322,12
22.503750625104185,0.7548883393970198,12
22.513752292048675,0.7332574488867097,12
22.523753958993165,0.6952635048012852,12
22.53375562593766,0.6489799516074065,12
22.543757292882148,0.5919231560222659,12
22.553758959826638,0.5314443003907516,12
22.563760626771128,0.5000082620387006,12
22.57376229371562,0.435186483867451,12
22.58376396066011,0.3724717079171,12
22.5937656276046,0.31109909061531144,12
22.603767294549094,0.2496687599044175,12
22.613768961493584,0.20778407379182462,12
22.623770628438074,0.17120879756372304,12
22.633772295382563,0.11929113626644418,12
22.643773962327057,0.07240531378241015,12
22.653775629271546,0.08627234489425398,12
22.663777296216036,0.032445355313573974,12
22.673778963160526,0.01894033387250132,12
22.68378063010502,0.012140410891532371,12
22.69378229704951,0.01649473724211973,12
22.703783963994,-0.013342829206671148,12
22.713785630938492,0.0021481695263482477,12
22.723787297882982,-0.006121596839006549,12
22.733788964827472,-0.006466256430143272,12
22.74379063177196,0.007246078230603727,12
22.753792298716455,-0.006916421269664814,12
22.763793965660945,0.01214078841847751,12
22.773795632605434,-0.021324142155253786,12
22.783797299549924,-0.043448962925681,12
22.793798966494418,-0.06462611309474156,12
22.803800633438907,-0.08857192147852981,12
22.813802300383397,-0.12125607248232569,12
22.82380396732789,-0.16005780945138157,12
22.83380563427238,-0.2108726368431445,12
22.84380730121687,-0.27307657562181975,12
22.85380896816136,-0.3202553471722635,12
22.863810635105853,-0.3895382943146041,12
22.873812302050343,-0.41508304153055053,12
22.883813968994833,-0.4867479517976807,12
22.893815635939323,-0.5704982493303736,12
22.903817302883816,-0.5924784362599501,12
22.913818969828306,-0.642693226229179,12
22.923820636772795,-0.6882770328874506,12
22.93382230371729,-0.7286026589484429,12
22.94382397066178,-0.7542312373319531,12
22.95382563760627,-0.7758827553176737,12
22.963827304550758,-0.7977258103229308,12
22.97382897149525,-0.7800072490994892,12
22.98383063843974,-0.7665555418093596,12
22.99383230538423,-0.7218097791905876,12
23.00383397232872,-0.6808421501599895,12
23.013835639273214,-0.6339620696694626,12
23.023837306217704,-0.5639095090772459,12
23.033838973162194,-0.4861643396325621,12
23.043840640106687,-0.41720002166054726,12
23.053842307051177,-0.29974551549326955,12
23.063843973995667,-0.21335976180080454,12
23.073845640940156,-0.10982282574341039,12
23.08384730788465,-0.010958129425881728,12
23.09384897482914,0.10946606660259423,12
23.10385064177363,0.18747610409954615,12
23.11385230871812,0.3083698297460803,12
23.123853975662612,0.3933181031039359,12
23.133855642607102,0.4854147091702386,12
23.143857309551592,0.5600968574532335,12
23.153858976496082,0.6305504728641768,12
23.163860643440575,0.6900024842469176,12
23.173862310385065,0.7175895571934469,12
23.183863977329555,0.7562350762150788,12
23.193865644274048,0.7669714369291513,12
23.203867311218538,0.7661918881132282,12
23.213868978163028,0.7826591191759329,12
23.223870645107517,0.7703046308303118,12
23.23387231205201,0.724251620008927,12
23.2438739789965,0.6909040686994007,12
23.25387564594099,0.6597540601705041,12
23.26387731288548,0.6027721872006877,12
23.273878979829973,0.5690338949191942,12
23.283880646774463,0.4845250031238634,12
23.293882313718953,0.44272522816559123,12
23.303883980663446,0.3758058867721313,12
23.313885647607936,0.3289422580856232,12
23.323887314552426,0.2719373069851471,12
23.333888981496916,0.22017051749756852,12
23.34389064844141,0.1565751306237357,12
23.3538923153859,0.1142206036909364,12
23.36389398233039,0.10117259267332354,12
23.37389564927488,0.06266741626028605,12
23.38389731621937,0.05669348056811328,12
23.39389898316386,0.030191129954739906,12
23.40390065010835,0.010390589168734924,12
23.413902317052845,0.0071806081959997995,12
23.423903983997334,-0.0007380617347475167,12
23.433905650941824,-0.0038647160739873846,12
23.443907317886314,-0.00458693273808408,12
23.453908984830807,0.00014341471083379208,12
23.463910651775297,-0.00624383963040735,12
23.473912318719787,0.002505393304115769,12
23.483913985664277,-0.031946114419767066,12
23.49391565260877,-0.017427212017157207,12
23.50391731955326,-0.02741231609201484,12
23.51391898649775,-0.05204136729415529,12
23.523920653442243,-0.09856180721323309,12
23.533922320386733,-0.125234356339297,12
23.543923987331222,-0.16121416093412616,12
23.553925654275712,-0.2034625553254859,12
23.563927321220206,-0.2617513804183291,12
23.573928988164695,-0.30088814757550314,12
23.583930655109185,-0.36408491862465236,12
23.593932322053675,-0.43244243996185916,12
23.60393398899817,-0.47474606715390727,12
23.613935655942658,-0.5482404265541719,12
23.623937322887148,-0.592021882332201,12
23.63393898983164,-0.6400793626507946,12
23.64394065677613,-0.6873064029379722,12
23.65394232372062,-0.7357824565276524,12
23.66394399066511,-0.7374162174023222,12
23.673945657609604,-0.7842199154951232,12
23.683947324554094,-0.7873927162310621,12
23.693948991498583,-0.7834412126184658,12
23.703950658443073,-0.7648322426986307,12
23.713952325387567,-0.7284459702670972,12
23.723953992332056,-0.7038053977499914,12
23.733955659276546,-0.6183633325060939,12
23.74395732622104,-0.5848282791217039,12
23.75395899316553,-0.4788047798137041,12
23.76396066011002,-0.40589960720378654,12
23.77396232705451,-0.3363073422629687,12
23.783963993999002,-0.21800879045891228,12
23.793965660943492,-0.09997559937164188,12
23.80396732788798,-0.021720717525016385,12
23.81396899483247,0.10291102395696611,12
23.823970661776965,0.2017946467995103,12
23.833972328721455,0.2832868382669012,12
23.843973995665944,0.3942284408041313,12
23.853975662610434,0.45884077795895717,12
23.863977329554928,0.5537424140448292,12
23.873978996499417,0.6261863561915314,12
23.883980663443907,0.6624211163668816,12
23.8939823303884,0.7115414220394944,12
23.90398399733289,0.7579163768411139,12
23.91398566427738,0.783180959079958,12
23.92398733122187,0.7663841009208627,12
23.933988998166363,0.7702514861022173,12
23.943990665110853,0.7406973823344826,12
23.953992332055343,0.7270516132049811,12
23.963993998999833,0.702156951308546,12
23.973995665944326,0.673072237671655,12
23.983997332888816,0.6094266564997503,12
23.993998999833305,0.5588475518988254,12
24.0040006667778,0.4819354051755284,12
24.01400233372229,0.4430901879083274,12
24.02400400066678,0.3864541108343923,12
24.034005667611268,0.3304362088659837,12
24.04400733455576,0.2813299115929515,12
24.05400900150025,0.22863025066300469,12
24.06401066844474,0.17094314855886783,12
24.07401233538923,0.12982916857419854,12
24.084014002333724,0.0968856464794005,12
24.094015669278214,0.07396447979702919,12
24.104017336222704,0.051886630471996105,12
24.114019003167197,-0.0011649894495915358,12
24.124020670111687,0.02830472037488283,12
24.134022337056177,0.0207033674382611,12
24.144024004000666,0.011744693235761052,12
24.15402567094516,0.011604585292909876,12
24.16402733788965,-0.014263913147516386,12
24.17402900483414,0.012254269192062005,12
24.18403067177863,-0.0025941061027966524,12
24.194032338723122,0.004159039919772968,12
24.204034005667612,-0.02522737899932123,12
24.214035672612102,-0.020969844096086675,12
24.224037339556595,-0.04452957186763473,12
24.234039006501085,-0.062314116118448046,12
24.244040673445575,-0.08107622299669252,12
24.254042340390065,-0.10980356160650909,12
24.264044007334558,-0.15688834575116264,12
24.274045674279048,-0.20783342486077233,12
24.284047341223538,-0.24174854176207564,12
24.294049008168027,-0.30447235668936345,12
24.30405067511252,-0.36792293406605026,12
24.31405234205701,-0.41654971766062815,12
24.3240540090015,-0.4770293833985881,12
24.334055675945994,-0.5223752248960678,12
24.344057342890483,-0.5780237529550127,12
24.354059009834973,-0.6311870866865601,12
24.364060676779463,-0.687925403804565,12
24.374062343723956,-0.7266721088116628,12
24.384064010668446,-0.7633084896903506,12
24.394065677612936,-0.7662246620607505,12
24.404067344557426,-0.7731922276735996,12
24.41406901150192,-0.775956854787319,12
24.42407067844641,-0.7742496987646328,12
24.4340723453909,-0.7290296233244247,12
24.444074012335392,-0.6998767681517031,12
24.45407567927988,-0.6484964119300003,12
24.46407734622437,-0.5692049219065561,12
24.47407901316886,-0.5010434872598523,12
24.484080680113355,-0.4132072506857183,12
24.494082347057844,-0.3401089350606965,12
24.504084014002334,-0.23282165508204808,12
24.514085680946824,-0.1424021074707059,12
24.524087347891317,-0.023429015306158433,12
24.534089014835807,0.08450289650010118,12
24.544090681780297,0.19335076217708946,12
24.554092348724787,0.2795475898796167,12
24.56409401566928,0.37594038481479214,12
24.57409568261377,0.44483223724300847,12
24.58409734955826,0.5473858306598985,12
24.594099016502753,0.6090520522077331,12
24.604100683447243,0.650983655040878,12
24.614102350391732,0.7031026495481416,12
24.624104017336222,0.7565998127417441,12
24.634105684280716,0.7807408969520899,12
24.644107351225205,0.7850362079313377,12
24.654109018169695,0.7762302334181674,12
24.664110685114185,0.7654799579035446,12
24.67411235205868,0.7215308173251188,12
24.684114019003168,0.7087356869321803,12
24.694115685947658,0.651291623056516,12
24.70411735289215,0.6189226830987835,12
24.71411901983664,0.5695237401596537,12
24.72412068678113,0.504931075437444,12
24.73412235372562,0.44532997638930655,12
24.744124020670114,0.3857839345209869,12
24.754125687614604,0.3347439183956896,12
24.764127354559093,0.2614059076207921,12
24.774129021503583,0.23098378900141925,12
24.784130688448077,0.197462375131303,12
24.794132355392566,0.12427643663177163,12
24.804134022337056,0.08828985807792561,12
24.81413568928155,0.05899790500661396,12
24.82413735622604,0.04440719438415205,12
24.83413902317053,0.02302108854205248,12
24.84414069011502,0.031678597122867684,12
24.854142357059512,0.01650099498610631,12
24.864144024004002,0.004191253747847686,12
24.87414569094849,0.008672471242136518,12
24.88414735789298,0.011287472266508699,12
24.894149024837475,0.009515179573895409,12
24.904150691781965,0.02472021216737176,12
24.914152358726454,-0.00785359839121333,12
24.924154025670948,-0.006508370267706205,12
24.934155692615438,-0.029135901737482046,12
24.944157359559927,-0.010400519754895927,12
24.954159026504417,-0.05072187230837275,12
24.96416069344891,-0.08195435318961315,12
24.9741623603934,-0.11951782400159462,12
24.98416402733789,-0.14870858026657358,12
24.99416569428238,-0.20058562466653357,12
25.004167361226873,-0.2509971922000423,12
25.014169028171363,-0.30069426750132616,12
25.024170695115853,-0.34478272149276756,12
25.034172362060346,-0.4250533259065495,12
25.044174029004836,-0.4736369433756441,12
25.054175695949326,-0.5229986098004569,12
25.064177362893815,-0.5846313614598506,12
25.07417902983831,-0.6334215996127285,12
25.0841806967828,-0.6642747981828457,12
25.09418236372729,-0.7090181765573147,12
25.104184030671778,-0.7605585380404773,12
25.11418569761627,-0.7779120175353352,12
25.12418736456076,-0.7751944681365521,12
25.13418903150525,-0.7613428298014363,12
25.144190698449744,-0.752091198996438,12
25.154192365394234,-0.7448142544655486,12
25.164194032338724,-0.688220102785789,12
25.174195699283214,-0.6272317193965412,12
25.184197366227707,-0.5707960873593376,12
25.194199033172197,-0.5065043941631814,12
25.204200700116687,-0.44348317631634965,12
25.214202367061176,-0.33384657506319326,12
25.22420403400567,-0.24902934203499033,12
25.23420570095016,-0.14176865994319318,12
25.24420736789465,-0.017661886046970054,12
25.25420903483914,0.06908847408425757,12
25.264210701783632,0.16302928301052366,12
25.274212368728122,0.2653945635168779,12
25.284214035672612,0.3757390371998705,12
25.294215702617105,0.45425146592836807,12
25.304217369561595,0.532799687056624,12
25.314219036506085,0.5858412386171634,12
25.324220703450575,0.6753796329249894,12
25.334222370395068,0.7072518333340201,12
25.344224037339558,0.7280416128288851,12
25.354225704284048,0.7816151533652856,12
25.364227371228537,0.7666698883176717,12
25.37422903817303,0.7732834172851575,12
25.38423070511752,0.7809117003110843,12
25.39423237206201,0.7448285093696385,12
25.404234039006504,0.7074960052779243,12
25.414235705950993,0.6760107161308738,12
25.424237372895483,0.6171082581390314,12
25.434239039839973,0.5653298196872887,12
25.444240706784466,0.5164717603520951,12
25.454242373728956,0.45751622415122056,12
25.464244040673446,0.4032555303665894,12
25.474245707617936,0.3528013889387295,12
25.48424737456243,0.2937263783582899,12
25.49424904150692,0.23811346089493413,12
25.50425070845141,0.18716266641684876,12
25.514252375395902,0.12902583070856036,12
25.52425404234039,0.1161650770692053,12
25.53425570928488,0.08060059855291922,12
25.54425737622937,0.06324294042491953,12
25.554259043173865,0.03414534343439637,12
25.564260710118354,0.0053464462319845404,12
25.574262377062844,-0.0045108404160887315,12
25.584264044007334,0.005775529400987054,12
25.594265710951827,-0.011929567365877242,12
25.604267377896317,0.0017774089412052566,12
25.614269044840807,0.013412512675843802,12
25.6242707117853,0.010550252721866861,12
25.63427237872979,0.012771900358015422,12
25.64427404567428,0.0019567666502659925,12
25.65427571261877,-0.011144632326856403,12
25.664277379563263,-0.02440136074041388,12
25.674279046507753,-0.0443753799676482,12
25.684280713452242,-0.08375220494747117,12
25.694282380396732,-0.10326609409327195,12
25.704284047341226,-0.13755570048783328,12
25.714285714285715,-0.1956274713119637,12
25.724287381230205,-0.23642374446052847,12
25.7342890481747,-0.28933320629435416,12
25.744290715119188,-0.34185067475588576,12
25.754292382063678,-0.3977663351206302,12
25.764294049008168,-0.4662159941546484,12
25.77429571595266,-0.49797510619259666,12
25.78429738289715,-0.5568027618504348,12
25.79429904984164,-0.6196425039072084,12
25.80430071678613,-0.6884744041246348,12
25.814302383730624,-0.7122980984162712,12
25.824304050675114,-0.7465877198950152,12
25.834305717619603,-0.7555152904310095,12
25.844307384564097,-0.7671938861970609,12
25.854309051508586,-0.7870769779003348,12
25.864310718453076,-0.7627647989578282,12
25.874312385397566,-0.7525642415326063,12
25.88431405234206,-0.694367580202523,12
25.89431571928655,-0.6537054246223316,12
25.90431738623104,-0.585759071776213,12
25.91431905317553,-0.5190072131617167,12
25.924320720120022,-0.4274840354552372,12
25.934322387064512,-0.36598465698867483,12
25.944324054009,-0.27437182836937246,12
25.954325720953495,-0.14584492940749894,12
25.964327387897985,-0.04559209949935647,12
25.974329054842475,0.040589752400333565,12
25.984330721786964,0.14581194666889893,12
25.994332388731458,0.23780422147098806,12
26.004334055675947,0.3577767429568289,12
26.014335722620437,0.4429960690174764,12
26.024337389564927,0.5363439222007897,12
26.03433905650942,0.5763109246587934,12
26.04434072345391,0.6582379235291113,12
26.0543423903984,0.7138241902491298,12
26.06434405734289,0.7310471052681344,12
26.074345724287383,0.7617368828389574,12
26.084347391231873,0.7855290050080103,12
26.094349058176363,0.7916532563644522,12
26.104350725120856,0.7719045291029161,12
26.114352392065346,0.7470336922338056,12
26.124354059009836,0.7081622258206076,12
26.134355725954325,0.6535325241730804,12
26.14435739289882,0.6235674672328815,12
26.15435905984331,0.5686365583970063,12
26.1643607267878,0.5208282973798222,12
26.174362393732288,0.4653187602474468,12
26.18436406067678,0.3896740921968934,12
26.19436572762127,0.33248510779730844,12
26.20436739456576,0.28596717632780855,12
26.214369061510254,0.24222450360336575,12
26.224370728454744,0.18664351159124043,12
26.234372395399234,0.14072569977835003,12
26.244374062343724,0.12712748249306788,12
26.254375729288217,0.07800951962140701,12
26.264377396232707,0.061065637699597206,12
26.274379063177197,0.03913462446593267,12
26.284380730121686,-0.006690410392798642,12
26.29438239706618,-0.00036818398532833217,12
26.30438406401067,-0.016018303787445138,12
26.31438573095516,-0.00180832043762279,12
26.324387397899653,0.010186860998352814,12
26.334389064844142,-0.005554488223148281,12
26.344390731788632,0.01381101499871934,12
26.354392398733122,-0.006015903844250927,12
26.364394065677615,-0.02572339828068474,12
26.374395732622105,-0.03306919505125602,12
26.384397399566595,-0.027101120560434688,12
26.394399066511085,-0.03968622081975073,12
26.404400733455578,-0.06301683472145858,12
26.414402400400068,-0.10184485524342633,12
26.424404067344557,-0.14036169801285342,12
26.43440573428905,-0.17165423667126092,12
26.44440740123354,-0.2235680609535132,12
26.45440906817803,-0.27219304838701114,12
26.46441073512252,-0.32539610766456134,12
26.474412402067014,-0.37831212796959407,12
26.484414069011503,-0.4487348698650017,12
26.494415735955993,-0.5149014779719141,12
26.504417402900483,-0.5659805900326399,12
26.514419069844976,-0.6308467993621869,12
26.524420736789466,-0.6604204716671241,12
26.534422403733956,-0.7193662227268095,12
26.54442407067845,-0.732886622888035,12
26.55442573762294,-0.7417627897053407,12
26.56442740456743,-0.7716667596361461,12
26.57442907151192,-0.7882335723093962,12
26.584430738456412,-0.7678955206387814,12
26.5944324054009,-0.7419313069269866,12
26.60443407234539,-0.720640578392536,12
26.61443573928988,-0.6602166700244196,12
26.624437406234374,-0.6194847056321984,12
26.634439073178864,-0.5388891100135345,12
26.644440740123354,-0.46531898032216323,12
26.654442407067847,-0.3644239298878764,12
26.664444074012337,-0.2662395577160558,12
26.674445740956827,-0.16331130348566086,12
26.684447407901317,-0.08453172891397523,12
26.69444907484581,0.03446818517204564,12
26.7044507417903,0.13340437322259094,12
26.71445240873479,0.2541886283458128,12
26.72445407567928,0.34336819629586396,12
26.734455742623773,0.4266331972130464,12
26.744457409568263,0.5066225424025396,12
26.754459076512752,0.5831152167038463,12
26.764460743457242,0.6498954580066278,12
26.774462410401735,0.6848854087884365,12
26.784464077346225,0.7370143503953875,12
26.794465744290715,0.7782221585553407,12
26.80446741123521,0.7737588737815944,12
26.814469078179698,0.7719979562753794,12
26.824470745124188,0.7609237268260691,12
26.834472412068678,0.75909347783138,12
26.84447407901317,0.7248447765081033,12
26.85447574595766,0.6803722568293685,12
26.86447741290215,0.628157730978657,12
26.87447907984664,0.5772774174178483,12
26.884480746791134,0.5423005654774757,12
26.894482413735624,0.46507225199549507,12
26.904484080680113,0.39898140960448514,12
26.914485747624607,0.3498022014250956,12
26.924487414569096,0.30495991621449303,12
26.934489081513586,0.23406230575303377,12
26.944490748458076,0.19495113885555934,12
26.95449241540257,0.16048966836458703,12
26.96449408234706,0.12576406561180511,12
26.97449574929155,0.07142364793834158,12
26.98449741623604,0.05793248122671675,12
26.994499083180532,0.04181642180568988,12
27.004500750125022,0.014590756517720904,12
27.01450241706951,-0.0062767690324710065,12
27.024504084014005,0.020438122744428376,12
27.034505750958495,0.011633544450923683,12
27.044507417902985,-0.002433155941650552,12
27.054509084847474,-0.005385195840357662,12
27.064510751791968,-0.002947170738188104,12
27.074512418736457,-0.003106472661600299,12
27.084514085680947,-0.01829389883928166,12
27.094515752625437,-0.020924401999438097,12
27.10451741956993,-0.028680112003866103,12
27.11451908651442,-0.07751082882645306,12
27.12452075345891,-0.06538186258292492,12
27.134522420403403,-0.07761605714381256,12
27.144524087347893,-0.14167707506037402,12
27.154525754292383,-0.17123950146732614,12
27.164527421236873,-0.21664389595252415,12
27.174529088181366,-0.2687205050550302,12
27.184530755125856,-0.3323824038454776,12
27.194532422070345,-0.3772685604378906,12
27.204534089014835,-0.4318398561730609,12
27.21453575595933,-0.5102650389980868,12
27.22453742290382,-0.5619205012907255,12
27.234539089848308,-0.6236390685867679,12
27.2445407567928,-0.6535566701780685,12
27.25454242373729,-0.7019227749324017,12
27.26454409068178,-0.7617273455698403,12
27.27454575762627,-0.7576948217287021,12
27.284547424570764,-0.7832077949814896,12
27.294549091515254,-0.7683122306203306,12
27.304550758459744,-0.7783623112815855,12
27.314552425404234,-0.756420387457855,12
27.324554092348727,-0.71910688880744,12
27.334555759293217,-0.683311764550818,12
27.344557426237706,-0.6061558914137766,12
27.3545590931822,-0.5451635554106804,12
27.36456076012669,-0.45356735100122353,12
27.37456242707118,-0.3580169233661092,12
27.38456409401567,-0.29294637784684857,12
27.394565760960162,-0.17457943027030054,12
27.404567427904652,-0.09555458884765472,12
27.414569094849142,0.017692189239207005,12
27.424570761793632,0.12700561324115178,12
27.434572428738125,0.21887503480259407,12
27.444574095682615,0.32236054231951056,12
27.454575762627105,0.40645634032275046,12
27.464577429571595,0.477138046108873,12
27.474579096516088,0.586839331858709,12
27.484580763460578,0.6469427361483587,12
27.494582430405067,0.7106982384060784,12
27.50458409734956,0.7305208039754527,12
27.51458576429405,0.7848962919774514,12
27.52458743123854,0.7731906535418883,12
27.53458909818303,0.789438552424406,12
27.544590765127523,0.7714437183061175,12
27.554592432072013,0.7557510356906835,12
27.564594099016503,0.7222395748392797,12
27.574595765960993,0.6823464100918349,12
27.584597432905486,0.6404882734174805,12
27.594599099849976,0.5772662774421536,12
27.604600766794466,0.5285387168085144,12
27.61460243373896,0.48137243973817573,12
27.62460410068345,0.4361466058105405,12
27.63460576762794,0.36570165213384653,12
27.64460743457243,0.3008634720163706,12
27.65460910151692,0.2465667574837861,12
27.66461076846141,0.2117014269954714,12
27.6746124354059,0.16160611173274772,12
27.68461410235039,0.1296325752176595,12
27.694615769294884,0.08222949171032772,12
27.704617436239374,0.05432222244148605,12
27.714619103183864,0.039750596760421565,12
27.724620770128357,0.02199197215257741,12
27.734622437072847,0.005744493861244759,12
27.744624104017337,0.007204959498377987,12
27.754625770961827,0.002436010939336995,12
27.76462743790632,0.015534053731185557,12
27.77462910485081,0.020287357324066505,12
27.7846307717953,0.027571426166414233,12
27.79463243873979,-0.00539911724059447,12
27.804634105684283,0.01093794696510297,12
27.814635772628773,-0.03207688849618147,12
27.824637439573262,-0.027881413789543227,12
27.834639106517756,-0.050083827857072584,12
27.844640773462245,-0.06753547232303896,12
27.854642440406735,-0.09496980385250645,12
27.864644107351225,-0.1338656166853733,12
27.87464577429572,-0.16126527416773848,12
27.884647441240208,-0.23246701694320218,12
27.894649108184698,-0.27644130471832573,12
27.904650775129188,-0.32844286383024884,12
27.91465244207368,-0.3896369800814629,12
27.92465410901817,-0.43025281785964203,12
27.93465577596266,-0.49888939439007013,12
27.944657442907154,-0.5518513520518034,12
27.954659109851644,-0.5952189105102959,12
27.964660776796133,-0.6423981552801744,12
27.974662443740623,-0.6981714624556712,12
27.984664110685117,-0.7512044902763341,12
27.994665777629606,-0.7476994468723331,12
28.004667444574096,-0.7844407234208102,12
28.014669111518586,-0.779595272199031,12
28.02467077846308,-0.7674477044936628,12
28.03467244540757,-0.7587480127005906,12
28.04467411235206,-0.7025491797517122,12
28.054675779296552,-0.6695699019722409,12
28.064677446241042,-0.6164111689119998,12
28.07467911318553,-0.5401389139176652,12
28.08468078013002,-0.48491660769720474,12
28.094682447074515,-0.37934939060236317,12
28.104684114019005,-0.29084447239644373,12
28.114685780963494,-0.2030434119918879,12
28.124687447907984,-0.0868939107217413,12
28.134689114852478,0.015015259068528306,12
28.144690781796967,0.1273223258421924,12
28.154692448741457,0.24472387792180866,12
28.164694115685947,0.30096044810880257,12
