time,ppg_signal,subject_id
0.0,-0.004676773442691768,6
0.010001666944490749,0.10432745958442287,6
0.020003333888981498,0.22102944947855108,6
0.030005000833472247,0.3417773225980092,6
0.040006667777962995,0.40436455945616995,6
0.050008334722453744,0.5061149155084992,6
0.06001000166694449,0.5668925454173394,6
0.07001166861143523,0.6637698030407388,6
0.08001333555592599,0.7025039496690088,6
0.09001500250041675,0.7484006176515379,6
0.10001666944490749,0.7768302384117768,6
0.11001833638939823,0.7620559827780018,6
0.12002000333388899,0.7738786149302896,6
0.13002167027837974,0.7804202830358694,6
0.14002333722287047,0.7417196542955955,6
0.15002500416736123,0.7109164750497003,6
0.16002667111185198,0.6266198183886162,6
0.17002833805634274,0.5703596961262382,6
0.1800300050008335,0.526258514775095,6
0.19003167194532422,0.46107531736418944,6
0.20003333888981498,0.4295882829777902,6
0.21003500583430573,0.3515049408178015,6
0.22003667277879646,0.2942723784554054,6
0.23003833972328722,0.20745083984606272,6
0.24004000666777797,0.19123824625873767,6
0.2500416736122687,0.14220751804644144,6
0.2600433405567595,0.10832519337511579,6
0.2700450075012502,0.067890506283091,6
0.28004667444574094,0.04398182875968051,6
0.2900483413902317,0.0188344812693158,6
0.30005000833472245,0.016799422204214584,6
0.31005167527921323,0.023998887240418876,6
0.32005334222370396,-0.009506358087764573,6
0.3300550091681947,0.009485838015155689,6
0.3400566761126855,0.0050339236850145425,6
0.3500583430571762,-0.0058564304837477104,6
0.360060010001667,0.004975386603315812,6
0.3700616769461577,-0.012765619729168322,6
0.38006334389064844,-0.015097429087779108,6
0.3900650108351392,-0.03942328715732394,6
0.40006667777962995,-0.04831009788891064,6
0.4100683447241207,-0.09309635457796024,6
0.42007001166861146,-0.12776050590390398,6
0.4300716786131022,-0.17622577588035498,6
0.4400733455575929,-0.22185393293365924,6
0.4500750125020837,-0.2745426765068645,6
0.46007667944657443,-0.3158987301312753,6
0.4700783463910652,-0.4062978027118993,6
0.48008001333555594,-0.46694640605955384,6
0.49008168028004667,-0.5298514985623014,6
0.5000833472245374,-0.5809032521940825,6
0.5100850141690282,-0.6303663152309655,6
0.520086681113519,-0.688836269891035,6
0.5300883480580096,-0.7218467856800758,6
0.5400900150025004,-0.7688023778975894,6
0.5500916819469912,-0.7536294754814161,6
0.5600933488914819,-0.770993706977492,6
0.5700950158359727,-0.7852524547690123,6
0.5800966827804634,-0.7446715816935322,6
0.5900983497249542,-0.70479708920952,6
0.6001000166694449,-0.6621526543677001,6
0.6101016836139357,-0.5881426184311681,6
0.6201033505584265,-0.5291134962702081,6
0.6301050175029171,-0.43317071646354893,6
0.6401066844474079,-0.33907904450270904,6
0.6501083513918987,-0.257052927028439,6
0.6601100183363894,-0.12503494089422237,6
0.6701116852808802,-0.015846694215085125,6
0.680113352225371,0.08776978492552531,6
0.6901150191698616,0.21309053369492206,6
0.7001166861143524,0.31611281403831937,6
0.7101183530588432,0.4094566293677094,6
0.720120020003334,0.499307817697278,6
0.7301216869478246,0.583746099855018,6
0.7401233538923154,0.6584928987100487,6
0.7501250208368062,0.7005668163840287,6
0.7601266877812969,0.7445234120006718,6
0.7701283547257877,0.7544782814615612,6
0.7801300216702785,0.7918926715696525,6
0.7901316886147691,0.7864796584941245,6
0.8001333555592599,0.7500105209949685,6
0.8101350225037507,0.7226281288793404,6
0.8201366894482414,0.6930756819414292,6
0.8301383563927321,0.6495241921533176,6
0.8401400233372229,0.5935051565307272,6
0.8501416902817136,0.5206862734444,6
0.8601433572262044,0.46592812910607284,6
0.8701450241706952,0.4216222395800655,6
0.8801466911151858,0.34566904858247316,6
0.8901483580596766,0.3183460936108023,6
0.9001500250041674,0.24919335612702356,6
0.9101516919486582,0.18621906836728777,6
0.9201533588931489,0.13744336535629484,6
0.9301550258376396,0.12468937987606958,6
0.9401566927821304,0.0658060984799657,6
0.9501583597266211,0.03221840347572795,6
0.9601600266711119,0.023533467653095497,6
0.9701616936156027,0.007302026895861296,6
0.9801633605600933,0.010469744677387685,6
0.9901650275045841,0.013407017415033617,6
1.0001666944490748,-0.004086442513917403,6
1.0101683613935657,-0.003666602878140449,6
1.0201700283380564,-0.011293950506180664,6
1.030171695282547,-0.004052899463791342,6
1.040173362227038,-0.007666886751946608,6
1.0501750291715286,-0.006894427609826361,6
1.0601766961160193,-0.023836636966195333,6
1.0701783630605102,-0.053561816384840644,6
1.0801800300050008,-0.08158145555492657,6
1.0901816969494915,-0.13138626857229152,6
1.1001833638939824,-0.16459523804051154,6
1.110185030838473,-0.2127409994533707,6
1.1201866977829638,-0.2586776768777406,6
1.1301883647274547,-0.33488389245489897,6
1.1401900316719453,-0.3998891269836878,6
1.1501916986164362,-0.45713767781124204,6
1.160193365560927,-0.4981823720493625,6
1.1701950325054176,-0.5673417907974503,6
1.1801966994499085,-0.6307428197470388,6
1.1901983663943991,-0.6691414939856201,6
1.2002000333388898,-0.7221909525142045,6
1.2102017002833807,-0.7495302547017549,6
1.2202033672278714,-0.7724423485270958,6
1.230205034172362,-0.7664821002471763,6
1.240206701116853,-0.755554784983988,6
1.2502083680613436,-0.7463058475496098,6
1.2602100350058343,-0.7160070809600737,6
1.2702117019503252,-0.6663711413466844,6
1.2802133688948159,-0.6203911076497786,6
1.2902150358393065,-0.531723307290406,6
1.3002167027837974,-0.43897006894712587,6
1.310218369728288,-0.36803118158938564,6
1.3202200366727788,-0.2591491212250165,6
1.3302217036172697,-0.1337892087081977,6
1.3402233705617603,-0.055515168680549634,6
1.350225037506251,0.08647618214268595,6
1.360226704450742,0.18683721249440047,6
1.3702283713952326,0.2921099046969923,6
1.3802300383397232,0.38772239934389835,6
1.3902317052842141,0.4723119999018599,6
1.4002333722287048,0.5645499046827424,6
1.4102350391731955,0.6305987690215842,6
1.4202367061176864,0.698165283380807,6
1.430238373062177,0.7366727227030155,6
1.440240040006668,0.7586170871963298,6
1.4502417069511586,0.7799277926745971,6
1.4602433738956493,0.7617416543113735,6
1.4702450408401402,0.7743595027430895,6
1.4802467077846309,0.728593125761607,6
1.4902483747291215,0.6986806387886055,6
1.5002500416736124,0.6667319918346166,6
1.510251708618103,0.6020725653603987,6
1.5202533755625938,0.5394144526079475,6
1.5302550425070847,0.4827824711937042,6
1.5402567094515753,0.43005698949937504,6
1.550258376396066,0.3555711293478524,6
1.560260043340557,0.30757091144885756,6
1.5702617102850476,0.24924056893257093,6
1.5802633772295382,0.2039306523748691,6
1.5902650441740291,0.1401834806401297,6
1.6002667111185198,0.11590644064275883,6
1.6102683780630105,0.08238889052621814,6
1.6202700450075014,0.06950051153095564,6
1.630271711951992,0.03937164843856488,6
1.6402733788964827,0.015547768348866182,6
1.6502750458409736,0.014618927478110355,6
1.6602767127854643,0.019717886324258766,6
1.670278379729955,-0.01465463490268626,6
1.6802800466744459,0.0033001304975397022,6
1.6902817136189365,0.003985936620910238,6
1.7002833805634272,0.00028676407565188244,6
1.710285047507918,0.010667364009337151,6
1.7202867144524088,-0.009932208466345155,6
1.7302883813968994,-0.02828201024591167,6
1.7402900483413903,-0.06675662388557113,6
1.750291715285881,-0.072568184961143,6
1.7602933822303717,-0.1311045178026059,6
1.7702950491748626,-0.15504316551277933,6
1.7802967161193533,-0.19687988881410073,6
1.7902983830638441,-0.262314325454942,6
1.8003000500083348,-0.31788652091871833,6
1.8103017169528255,-0.39608052251257503,6
1.8203033838973164,-0.4434484627408346,6
1.830305050841807,-0.5004700956514571,6
1.8403067177862977,-0.5662496481965813,6
1.8503083847307886,-0.6336071159443333,6
1.8603100516752793,-0.6624666952239564,6
1.87031171861977,-0.7038374731470993,6
1.8803133855642609,-0.7536593900673435,6
1.8903150525087515,-0.772764205645063,6
1.9003167194532422,-0.7852640948576977,6
1.910318386397733,-0.7771190719555541,6
1.9203200533422238,-0.761690198722565,6
1.9303217202867144,-0.7157043580570694,6
1.9403233872312053,-0.6875676128237804,6
1.950325054175696,-0.6123763424360551,6
1.9603267211201867,-0.5412190529029017,6
1.9703283880646776,-0.46320992210782996,6
1.9803300550091683,-0.3836526690753935,6
1.990331721953659,-0.2684429204340277,6
2.0003333888981496,-0.16998449093699902,6
2.0103350558426407,-0.03010051130243272,6
2.0203367227871314,0.06353333596087811,6
2.030338389731622,0.15672940685642897,6
2.0403400566761127,0.29209725837054723,6
2.0503417236206034,0.4018724315035843,6
2.060343390565094,0.4948529115177298,6
2.070345057509585,0.5467773430204613,6
2.080346724454076,0.6328650276912664,6
2.0903483913985665,0.6811739906278599,6
2.100350058343057,0.7365074324808969,6
2.110351725287548,0.7578526007530564,6
2.1203533922320386,0.7592572622117953,6
2.1303550591765297,0.791213966407798,6
2.1403567261210203,0.7888083598117923,6
2.150358393065511,0.7413981695610248,6
2.1603600600100017,0.7229310785885786,6
2.1703617269544924,0.6490414457940262,6
2.180363393898983,0.5973294300025979,6
2.190365060843474,0.5683863821466224,6
2.200366727787965,0.5050309488545528,6
2.2103683947324555,0.4409324429899324,6
2.220370061676946,0.3696408540808185,6
2.230371728621437,0.3042144160296191,6
2.2403733955659275,0.23871161504196015,6
2.2503750625104186,0.21030234502435463,6
2.2603767294549093,0.14450482709868123,6
2.2703783963994,0.11258952404135512,6
2.2803800633438907,0.07048333360585442,6
2.2903817302883813,0.05266549887996662,6
2.3003833972328724,0.02310674824663805,6
2.310385064177363,0.02715015348248903,6
2.320386731121854,0.006333049913970668,6
2.3303883980663445,0.00037867045569739974,6
2.340390065010835,-0.009110256704184907,6
2.350391731955326,-0.004464093680786706,6
2.360393398899817,-0.0011975782363093318,6
2.3703950658443076,0.0032754697346183926,6
2.3803967327887983,-0.017144051197834905,6
2.390398399733289,-0.026004659647935833,6
2.4004000666777796,-0.017875619159755544,6
2.4104017336222703,-0.053695716652462026,6
2.4204034005667614,-0.067977847158993,6
2.430405067511252,-0.1104059357941515,6
2.4404067344557427,-0.15510741841030304,6
2.4504084014002334,-0.20657333691141688,6
2.460410068344724,-0.24337936049106573,6
2.4704117352892148,-0.3088370428617912,6
2.480413402233706,-0.37438348435197394,6
2.4904150691781965,-0.440196017173513,6
2.5004167361226872,-0.4930095143884014,6
2.510418403067178,-0.544757900833238,6
2.5204200700116686,-0.6046504081323162,6
2.5304217369561592,-0.6578055734175542,6
2.5404234039006504,-0.7097086692619471,6
2.550425070845141,-0.7366686543169253,6
2.5604267377896317,-0.7680413212486279,6
2.5704284047341224,-0.7859146649090817,6
2.580430071678613,-0.7857207521529799,6
2.590431738623104,-0.7452860260404952,6
2.600433405567595,-0.7173176335525325,6
2.6104350725120855,-0.6760368235086759,6
2.620436739456576,-0.6223782454114373,6
2.630438406401067,-0.5500160280857651,6
2.6404400733455575,-0.46673818984389276,6
2.6504417402900486,-0.37056989630909304,6
2.6604434072345393,-0.27437629221071674,6
2.67044507417903,-0.17032310210921145,6
2.6804467411235207,-0.05672745438775457,6
2.6904484080680113,0.0553170966668885,6
2.700450075012502,0.17251052478529405,6
2.710451741956993,0.2669174779772924,6
2.720453408901484,0.36927985596229346,6
2.7304550758459745,0.45278424937658934,6
2.740456742790465,0.5468840508688033,6
2.750458409734956,0.6282932992787966,6
2.7604600766794465,0.6855438410664844,6
2.7704617436239376,0.726046335750572,6
2.7804634105684283,0.763119425938005,6
2.790465077512919,0.7796799785963073,6
2.8004667444574096,0.7831673099984745,6
2.8104684114019003,0.7538015437911318,6
2.820470078346391,0.7600737049679593,6
2.830471745290882,0.7069911239262949,6
2.8404734122353728,0.6674311219949056,6
2.8504750791798634,0.6246642378304874,6
2.860476746124354,0.5516095895537518,6
2.8704784130688448,0.48696674316999033,6
2.880480080013336,0.44100950930537347,6
2.8904817469578266,0.36776180677348236,6
2.9004834139023172,0.30196232322899325,6
2.910485080846808,0.26371857924276326,6
2.9204867477912986,0.21165177126904797,6
2.9304884147357892,0.1620177566040377,6
2.9404900816802804,0.08266270104652128,6
2.950491748624771,0.08863558437591203,6
2.9604934155692617,0.048541896609724376,6
2.9704950825137524,0.04403454280135327,6
2.980496749458243,0.009493207688803594,6
2.9904984164027337,0.013281576801412657,6
3.000500083347225,0.016348550723767875,6
3.0105017502917155,0.0009647192459036207,6
3.020503417236206,0.00022432881971368157,6
3.030505084180697,0.00684290603002425,6
3.0405067511251875,0.0033437193103801966,6
3.050508418069678,0.0006817057876476228,6
3.0605100850141693,-0.015794053161455948,6
3.07051175195866,-0.03385459935902887,6
3.0805134189031507,-0.053461865216837656,6
3.0905150858476413,-0.07934234156413718,6
3.100516752792132,-0.08842648898291156,6
3.1105184197366227,-0.14297628392965375,6
3.120520086681114,-0.18552614082441765,6
3.1305217536256045,-0.25401120177875214,6
3.140523420570095,-0.2898214368910025,6
3.150525087514586,-0.3625635258057067,6
3.1605267544590765,-0.4078263015201894,6
3.170528421403567,-0.4896461016900229,6
3.1805300883480583,-0.5394467525953669,6
3.190531755292549,-0.6001177209276001,6
3.2005334222370396,-0.658522550414144,6
3.2105350891815303,-0.70132020853148,6
3.220536756126021,-0.7411434317767398,6
3.230538423070512,-0.7519939482140938,6
3.2405400900150028,-0.7748262476075984,6
3.2505417569594934,-0.7687360263215831,6
3.260543423903984,-0.7730816942334139,6
3.270545090848475,-0.7347490725647816,6
3.2805467577929655,-0.6976626267397068,6
3.2905484247374566,-0.6615696086302018,6
3.3005500916819472,-0.5640557249853008,6
3.310551758626438,-0.4957660847360526,6
3.3205534255709286,-0.38138813947665484,6
3.3305550925154193,-0.2999642989950469,6
3.34055675945991,-0.20833402122718833,6
3.350558426404401,-0.0657658072628869,6
3.3605600933488917,0.023795265804344365,6
3.3705617602933824,0.1341769993780381,6
3.380563427237873,0.2530820066882227,6
3.3905650941823637,0.35609639772947427,6
3.4005667611268544,0.45885353867987544,6
3.4105684280713455,0.545631866591879,6
3.420570095015836,0.5972750163280023,6
3.430571761960327,0.6802500078855266,6
3.4405734289048175,0.7178956514436505,6
3.450575095849308,0.7463920635182527,6
3.460576762793799,0.7707513257512852,6
3.47057842973829,0.7927697922249097,6
3.4805800966827807,0.7695360841960471,6
3.4905817636272714,0.7655169817503046,6
3.500583430571762,0.7336485013681243,6
3.5105850975162527,0.6696627784082363,6
3.5205867644607434,0.6430197918256683,6
3.5305884314052345,0.5602660600687993,6
3.540590098349725,0.5195942276406823,6
3.550591765294216,0.45307134502263263,6
3.5605934322387065,0.3837046050436652,6
3.570595099183197,0.3165590540766515,6
3.5805967661276883,0.2658442048468751,6
3.590598433072179,0.21499509488443072,6
3.6006001000166696,0.16998672078478982,6
3.6106017669611603,0.126914837482484,6
3.620603433905651,0.09178791527613878,6
3.6306051008501417,0.07155005459107418,6
3.6406067677946328,0.05325654456134134,6
3.6506084347391234,0.011484288178753497,6
3.660610101683614,0.010573499671660307,6
3.670611768628105,-0.016195694991765184,6
3.6806134355725955,-0.013370786281561643,6
3.690615102517086,-0.0025576024376167687,6
3.7006167694615772,-0.003371516192439768,6
3.710618436406068,0.015925995549716063,6
3.7206201033505586,-0.016197439508139788,6
3.7306217702950493,-0.011136671293043857,6
3.74062343723954,-0.03453174108029774,6
3.7506251041840306,-0.04861856436585685,6
3.7606267711285217,-0.09074047810492511,6
3.7706284380730124,-0.08152100320157181,6
3.780630105017503,-0.14439227231643767,6
3.7906317719619937,-0.18211652863495564,6
3.8006334389064844,-0.21935438971281684,6
3.810635105850975,-0.3090022562251703,6
3.820636772795466,-0.3426801584401112,6
3.830638439739957,-0.4267747251545078,6
3.8406401066844476,-0.48203076618954294,6
3.8506417736289382,-0.5417553468048163,6
3.860643440573429,-0.5992146555456961,6
3.87064510751792,-0.647169481318581,6
3.8806467744624107,-0.7011158428781104,6
3.8906484414069014,-0.7336151438590128,6
3.900650108351392,-0.7384943595710254,6
3.9106517752958827,-0.7760399042352645,6
3.9206534422403734,-0.7762154411644031,6
3.9306551091848645,-0.7599719050012874,6
3.940656776129355,-0.7424646522569044,6
3.950658443073846,-0.7190963670400512,6
3.9606601100183365,-0.6466827243887159,6
3.970661776962827,-0.5636972455186686,6
3.980663443907318,-0.4982780717971099,6
3.990665110851809,-0.39764045418366273,6
4.000666777796299,-0.30225228931106873,6
4.01066844474079,-0.2122561391319676,6
4.020670111685281,-0.086929840572576,6
4.030671778629772,0.01716433776628712,6
4.040673445574263,0.12308740035055393,6
4.0506751125187535,0.24409960845635237,6
4.060676779463244,0.34693437168648594,6
4.070678446407735,0.43462424309558034,6
4.0806801133522255,0.5244538386659805,6
4.090681780296716,0.6230158377512418,6
4.100683447241207,0.655196847172565,6
4.1106851141856975,0.7120848450225298,6
4.120686781130188,0.7363110872818938,6
4.130688448074679,0.7604990664261869,6
4.14069011501917,0.7753933575460639,6
4.150691781963661,0.772550603601259,6
4.160693448908152,0.7485077864996029,6
4.170695115852642,0.7244350846997283,6
4.180696782797133,0.6687221907843147,6
4.190698449741624,0.6472643636989313,6
4.200700116686114,0.5661987394345409,6
4.210701783630605,0.5201220063113958,6
4.220703450575096,0.43058599502676975,6
4.2307051175195864,0.38979998182803366,6
4.240706784464077,0.34281993915388786,6
4.250708451408569,0.26853301890627157,6
4.260710118353059,0.22565041145797837,6
4.27071178529755,0.16558125076383942,6
4.280713452242041,0.1216819144646717,6
4.290715119186531,0.10521781224179048,6
4.300716786131022,0.07628749172158975,6
4.310718453075513,0.032653876576428154,6
4.320720120020003,0.026153990272120654,6
4.330721786964494,0.01920903787003861,6
4.340723453908985,0.017085321614679797,6
4.350725120853475,-0.015068955596256695,6
4.360726787797966,0.00020065726345242784,6
4.370728454742458,0.006574676397479383,6
4.380730121686948,0.009439612886953039,6
4.390731788631439,-0.009953628612204678,6
4.40073345557593,-0.02098950530802069,6
4.41073512252042,-0.014339973233222445,6
4.420736789464911,-0.044676562151874516,6
4.430738456409402,-0.08510262161240721,6
4.440740123353892,-0.087550147613051,6
4.450741790298383,-0.13335376061230464,6
4.460743457242874,-0.1788399731093714,6
4.470745124187364,-0.22473341524516025,6
4.480746791131855,-0.26924718315152973,6
4.490748458076347,-0.3423272412284202,6
4.500750125020837,-0.40651630131819344,6
4.510751791965328,-0.46898486327214955,6
4.520753458909819,-0.5236383666315803,6
4.530755125854309,-0.5864881541561446,6
4.5407567927988,-0.6339171124946709,6
4.550758459743291,-0.6967758914671583,6
4.560760126687781,-0.7179493582200703,6
4.570761793632272,-0.7730887882623092,6
4.580763460576763,-0.7711718227895354,6
4.590765127521253,-0.7809616097053169,6
4.600766794465745,-0.7547144169987234,6
4.6107684614102356,-0.7585047667543541,6
4.620770128354726,-0.7064651784389443,6
4.630771795299217,-0.6435411953293217,6
4.640773462243708,-0.5872909166222641,6
4.650775129188198,-0.5229053362774022,6
4.660776796132689,-0.4128901141839225,6
4.67077846307718,-0.3436478019515077,6
4.68078013002167,-0.20388389060165396,6
4.690781796966161,-0.10191335588752314,6
4.700783463910652,0.0010154862242572314,6
4.710785130855142,0.12255830478150315,6
4.720786797799634,0.2107440422171088,6
4.7307884647441245,0.31322424412858435,6
4.740790131688615,0.4222458289793007,6
4.750791798633106,0.5179597446843921,6
4.7607934655775965,0.5968787258466125,6
4.770795132522087,0.6407903634469398,6
4.780796799466578,0.7029479936500062,6
4.7907984664110685,0.7427630626927126,6
4.800800133355559,0.7971866565857831,6
4.81080180030005,0.7651082902156838,6
4.820803467244541,0.7560875161160939,6
4.830805134189032,0.7582883992205737,6
4.840806801133523,0.7356491784883799,6
4.8508084680780135,0.6898645661570302,6
4.860810135022504,0.65702696267928,6
4.870811801966995,0.5825665766822998,6
4.8808134689114855,0.5055856770457778,6
4.890815135855976,0.45060994891846146,6
4.900816802800467,0.4266560228976387,6
4.9108184697449575,0.3445640198912584,6
4.920820136689448,0.2701344805989858,6
4.930821803633939,0.231090768624392,6
4.9408234705784295,0.17950712035786992,6
4.950825137522921,0.13486740075343834,6
4.960826804467412,0.09647258718046728,6
4.970828471411902,0.06552281114426758,6
4.980830138356393,0.036858210402039876,6
4.990831805300884,0.004648725562512213,6
5.0008334722453744,0.008074607886747931,6
5.010835139189865,0.008795974157238732,6
5.020836806134356,-0.0006929947893849681,6
5.0308384730788465,-0.008100591514588746,6
5.040840140023337,-0.01846184701738879,6
5.050841806967828,0.005895425007843687,6
5.0608434739123185,-0.003669411917757011,6
5.07084514085681,-0.0019487226798480303,6
5.080846807801301,-0.024908142399231614,6
5.090848474745791,-0.026002692603289284,6
5.100850141690282,-0.05495275467190677,6
5.110851808634773,-0.09155832552178281,6
5.120853475579263,-0.12421269619610655,6
5.130855142523754,-0.17209447611881631,6
5.140856809468245,-0.22910419328076698,6
5.150858476412735,-0.2809516822483004,6
5.160860143357226,-0.33065951897524226,6
5.170861810301717,-0.4088365819990514,6
5.180863477246208,-0.4572365428149667,6
5.190865144190699,-0.5235342850303004,6
5.20086681113519,-0.5903310014717461,6
5.21086847807968,-0.6383868517859973,6
5.220870145024171,-0.6920784586825393,6
5.230871811968662,-0.7341009833045061,6
5.240873478913152,-0.774640352254088,6
5.250875145857643,-0.7761032860442587,6
5.260876812802134,-0.7699597056366775,6
5.270878479746624,-0.7483757471300105,6
5.280880146691115,-0.7677567896387261,6
5.290881813635606,-0.7344895481815823,6
5.300883480580097,-0.6611561773834519,6
5.310885147524588,-0.5941720949007111,6
5.320886814469079,-0.5106079632474295,6
5.330888481413569,-0.4309660027702506,6
5.34089014835806,-0.33855780787373374,6
5.350891815302551,-0.22776793267442622,6
5.360893482247041,-0.1153997829625757,6
5.370895149191532,-0.01824770840855007,6
5.380896816136023,0.10400876185240061,6
5.390898483080513,0.20429731155942893,6
5.400900150025004,0.30349009118606124,6
5.410901816969495,0.3982260577131257,6
5.420903483913986,0.5054319824566191,6
5.430905150858477,0.5818984357296147,6
5.440906817802968,0.6442752280252837,6
5.450908484747458,0.7102297832772011,6
5.460910151691949,0.7396472725964044,6
5.47091181863644,0.765838822407524,6
5.48091348558093,0.7759633095129482,6
5.490915152525421,0.7848263830888029,6
5.500916819469912,0.7549273317772702,6
5.510918486414402,0.7266862992714364,6
5.520920153358893,0.6911979303599186,6
5.5309218203033845,0.6556384498061588,6
5.540923487247875,0.6152617369203104,6
5.550925154192366,0.5330549260587802,6
5.5609268211368565,0.459932466057475,6
5.570928488081347,0.4064737857769827,6
5.580930155025838,0.34848097110733756,6
5.590931821970329,0.28873224965363004,6
5.600933488914819,0.22551315078677803,6
5.61093515585931,0.1765240710260721,6
5.620936822803801,0.143027924737694,6
5.630938489748291,0.11068159655671146,6
5.640940156692782,0.07188487717895696,6
5.6509418236372735,0.0337867034978631,6
5.660943490581764,0.03324094515523177,6
5.670945157526255,0.011985249307290193,6
5.6809468244707455,0.012318075315869436,6
5.690948491415236,-0.012435542159193234,6
5.700950158359727,0.012222555476834304,6
5.7109518253042175,0.006026973557634597,6
5.720953492248708,-0.012429725716984783,6
5.730955159193199,-0.0005781281223592141,6
5.7409568261376895,-0.00016410111994313338,6
5.75095849308218,-0.017541362738662355,6
5.760960160026672,-0.023553728288417362,6
5.7709618269711624,-0.07034645125207382,6
5.780963493915653,-0.09489236121575942,6
5.790965160860144,-0.10861468795832406,6
5.8009668278046345,-0.15875828013220758,6
5.810968494749125,-0.2060412080145271,6
5.820970161693616,-0.26217090672723775,6
5.8309718286381065,-0.32156988133654835,6
5.840973495582597,-0.39408483128628247,6
5.850975162527088,-0.45821619156630744,6
5.8609768294715785,-0.49809141335969853,6
5.870978496416069,-0.5741047699550492,6
5.880980163360561,-0.6407568769090306,6
5.890981830305051,-0.6854244424117052,6
5.900983497249542,-0.7383901174725689,6
5.910985164194033,-0.7379028082626006,6
5.920986831138523,-0.7904537280322372,6
5.930988498083014,-0.776869377557858,6
5.940990165027505,-0.7596832663325888,6
5.950991831971995,-0.7635852997985403,6
5.960993498916486,-0.7090819971913429,6
5.970995165860977,-0.6700975301738864,6
5.9809968328054675,-0.6019854696785907,6
5.990998499749958,-0.5375551120004263,6
6.00100016669445,-0.46382007598959574,6
6.01100183363894,-0.3621923766361141,6
6.021003500583431,-0.2534673987717101,6
6.031005167527922,-0.14303016714770114,6
6.041006834472412,-0.027279434310843724,6
6.051008501416903,0.07245593000200959,6
6.061010168361394,0.19456026810960497,6
6.071011835305884,0.27988215012949663,6
6.081013502250375,0.40453941073430644,6
6.091015169194866,0.474809947487845,6
6.101016836139356,0.5665471140698376,6
6.111018503083848,0.6286986330640005,6
6.121020170028339,0.6945498292668093,6
6.131021836972829,0.7226862768968775,6
6.14102350391732,0.7762228488049235,6
6.151025170861811,0.7677995286533524,6
6.161026837806301,0.7616700794330606,6
6.171028504750792,0.7679053196671346,6
6.181030171695283,0.7258632227525554,6
6.191031838639773,0.7025224167087729,6
6.201033505584264,0.661333325326886,6
6.211035172528755,0.5966021413950241,6
6.221036839473245,0.5438305501152454,6
6.231038506417737,0.4728159557775479,6
6.241040173362228,0.41072756741437666,6
6.251041840306718,0.3771519166457456,6
6.261043507251209,0.28623934366449266,6
6.2710451741957,0.2338622427926037,6
6.28104684114019,0.19120419165215163,6
6.291048508084681,0.14385927024184395,6
6.301050175029172,0.09110264890240849,6
6.311051841973662,0.07559887507030025,6
6.321053508918153,0.023355408774592204,6
6.331055175862644,0.020763972139701006,6
6.341056842807134,0.014756489178892065,6
6.351058509751626,0.029395007103681647,6
6.361060176696117,-0.0019403389410926294,6
6.371061843640607,0.012860934003693468,6
6.381063510585098,-0.0001875093087169438,6
6.391065177529589,-0.022951896756951168,6
6.401066844474079,0.021422517001391455,6
6.41106851141857,-0.012253280492128803,6
6.421070178363061,-0.025091415319943647,6
6.431071845307551,-0.024133995649624866,6
6.441073512252042,-0.06520828477344903,6
6.451075179196533,-0.09579115448249542,6
6.461076846141024,-0.10690164557604795,6
6.471078513085515,-0.17384143910900682,6
6.4810801800300055,-0.19580202605398186,6
6.491081846974496,-0.2462746624708683,6
6.501083513918987,-0.31700501333461273,6
6.5110851808634775,-0.393205277717321,6
6.521086847807968,-0.4504971859093695,6
6.531088514752459,-0.5128423871681714,6
6.54109018169695,-0.5715651054435875,6
6.55109184864144,-0.6035853887328732,6
6.561093515585931,-0.678614204305737,6
6.571095182530422,-0.7116092213815585,6
6.581096849474913,-0.7533661048703352,6
6.591098516419404,-0.7680057774134608,6
6.6011001833638945,-0.7719181998147562,6
6.611101850308385,-0.7920770732635037,6
6.621103517252876,-0.7332814385080452,6
6.6311051841973665,-0.7232244933564463,6
6.641106851141857,-0.6825647820584864,6
6.651108518086348,-0.6358289420721914,6
6.6611101850308385,-0.5406039672963255,6
6.671111851975329,-0.473490789694758,6
6.68111351891982,-0.3734335231414838,6
6.6911151858643105,-0.26467291302098506,6
6.701116852808802,-0.13382324632057055,6
6.711118519753293,-0.0481192650359376,6
6.721120186697783,0.05381306210000333,6
6.731121853642274,0.1784788357012145,6
6.741123520586765,0.30053626367428476,6
6.7511251875312555,0.39805493726044017,6
6.761126854475746,0.46958768657520733,6
6.771128521420237,0.5644137712508778,6
6.7811301883647275,0.6212972097661499,6
6.791131855309218,0.6760747075563894,6
6.801133522253709,0.7244247212026796,6
6.8111351891982,0.75709470925506,6
6.821136856142691,0.7755133898394561,6
6.831138523087182,0.7639259442854642,6
6.841140190031672,0.7698403179360003,6
6.851141856976163,0.7343646040215517,6
6.861143523920654,0.696720739148378,6
6.871145190865144,0.6627336524273781,6
6.881146857809635,0.6297546841066415,6
6.891148524754126,0.5373501886714606,6
6.901150191698616,0.509420271573205,6
6.911151858643107,0.4408523688790689,6
6.921153525587598,0.379049553750657,6
6.931155192532089,0.3020335659742859,6
6.94115685947658,0.24984347992757336,6
6.951158526421071,0.22459046028672858,6
6.961160193365561,0.17521669715169416,6
6.971161860310052,0.09467545990486992,6
6.981163527254543,0.08103834624566297,6
6.991165194199033,0.05492833893768176,6
7.001166861143524,0.034680013260616656,6
7.011168528088015,0.02883554093583523,6
7.021170195032505,0.006141454538844516,6
7.031171861976996,-0.011558431726260837,6
7.041173528921487,-0.0007761088567393229,6
7.051175195865978,0.013314217852821074,6
7.061176862810469,-0.00016424816909546889,6
7.07117852975496,-0.00946386830295691,6
7.08118019669945,-0.01788767090671847,6
7.091181863643941,0.001958262596545624,6
7.101183530588432,-0.02926990005116695,6
7.111185197532922,-0.03755789977646217,6
7.121186864477413,-0.0710622343632896,6
7.131188531421904,-0.126400685339554,6
7.141190198366394,-0.1579880334500074,6
7.151191865310885,-0.20279392930842655,6
7.161193532255377,-0.23779568944791574,6
7.171195199199867,-0.30239795966509403,6
7.181196866144358,-0.36759884337267246,6
7.191198533088849,-0.4351739087487936,6
7.201200200033339,-0.4886514672817395,6
7.21120186697783,-0.5626294844925012,6
7.221203533922321,-0.6076577345172335,6
7.231205200866811,-0.6725178633491146,6
7.241206867811302,-0.7264805096627217,6
7.251208534755793,-0.7530399888786787,6
7.261210201700283,-0.7663999855350335,6
7.271211868644774,-0.7837006340266371,6
7.2812135355892655,-0.7828044299145046,6
7.291215202533756,-0.7698665603163537,6
7.301216869478247,-0.7256135406516282,6
7.311218536422738,-0.6950093853026921,6
7.321220203367228,-0.6241016053094822,6
7.331221870311719,-0.5661708659848588,6
7.34122353725621,-0.47649325889363814,6
7.3512252042007,-0.38385715228568207,6
7.361226871145191,-0.27089708692124354,6
7.371228538089682,-0.1717234844693052,6
7.381230205034172,-0.07813978409859024,6
7.391231871978664,0.04934257810094,6
7.4012335389231545,0.15251524335836408,6
7.411235205867645,0.2701481365279588,6
7.421236872812136,0.3724746672636037,6
7.4312385397566265,0.4358946174649109,6
7.441240206701117,0.5523716110099908,6
7.451241873645608,0.6243245139217368,6
7.4612435405900985,0.6706399240488272,6
7.471245207534589,0.7232077359899657,6
7.48124687447908,0.765547162939133,6
7.4912485414235706,0.7872044290154672,6
7.501250208368061,0.7750376471795977,6
7.511251875312553,0.7635121173574065,6
7.5212535422570435,0.7626221539369009,6
7.531255209201534,0.7086110446009162,6
7.541256876146025,0.6682750310673621,6
7.5512585430905155,0.6161000910107768,6
7.561260210035006,0.5664186738291481,6
7.571261876979497,0.5073459021985169,6
7.5812635439239875,0.44443388093145125,6
7.591265210868478,0.38296702248770564,6
7.601266877812969,0.32776617273960573,6
7.6112685447574595,0.25696878234736276,6
7.62127021170195,0.18913334819245328,6
7.631271878646442,0.15453504765682616,6
7.641273545590932,0.11408392843404772,6
7.651275212535423,0.06419833665381253,6
7.661276879479914,0.04986632904202415,6
7.671278546424404,0.016129345468395527,6
7.681280213368895,0.009778087090146763,6
7.691281880313386,-0.0006907128340798586,6
7.7012835472578764,0.007612261638243083,6
7.711285214202367,-0.003309551205305294,6
7.721286881146858,0.007193031184836018,6
7.7312885480913485,-0.010131771589607746,6
7.74129021503584,-0.005443990183819539,6
7.751291881980331,0.00785726484411534,6
7.761293548924821,0.009717640644539487,6
7.771295215869312,-0.02117578539533331,6
7.781296882813803,-0.056710670790542206,6
7.791298549758293,-0.07643985742429368,6
7.801300216702784,-0.11479696064409221,6
7.811301883647275,-0.15331765802441105,6
7.821303550591765,-0.20468436595447442,6
7.831305217536256,-0.23999222902338835,6
7.841306884480747,-0.2999206311135008,6
7.851308551425237,-0.3526452916233481,6
7.861310218369729,-0.4229091102496045,6
7.87131188531422,-0.47463200396078076,6
7.88131355225871,-0.5486734452668829,6
7.891315219203201,-0.623378100246111,6
7.901316886147692,-0.6647338293176254,6
7.911318553092182,-0.706718896094864,6
7.921320220036673,-0.7432766864592689,6
7.931321886981164,-0.7546963717193176,6
7.941323553925654,-0.8118105813488214,6
7.951325220870145,-0.7646250851390961,6
7.961326887814636,-0.7658755099534584,6
7.971328554759126,-0.7472029353475609,6
7.981330221703618,-0.7053496912107731,6
7.991331888648109,-0.6375688881670254,6
8.001333555592598,-0.5702692356316563,6
8.01133522253709,-0.502041084329651,6
8.02133688948158,-0.4003959494346213,6
8.031338556426071,-0.3070618627241201,6
8.041340223370563,-0.1837375961223933,6
8.051341890315053,-0.08444210585814213,6
8.061343557259544,0.02492676372143426,6
8.071345224204034,0.15431816744696683,6
8.081346891148526,0.2644589122923071,6
8.091348558093015,0.3664543996011436,6
8.101350225037507,0.4528764832387778,6
8.111351891981997,0.5343658373003474,6
8.121353558926488,0.6207802547081296,6
8.131355225870978,0.6644563802015119,6
8.14135689281547,0.7151151068490834,6
8.151358559759961,0.7682010216614413,6
8.161360226704451,0.7750432155459218,6
8.171361893648942,0.7759058222624632,6
8.181363560593432,0.7633603399359619,6
8.191365227537924,0.7535921915381828,6
8.201366894482414,0.7111054277164494,6
8.211368561426905,0.6838779039370179,6
8.221370228371395,0.6129043872721486,6
8.231371895315887,0.5810361084359508,6
8.241373562260376,0.5189762185492363,6
8.251375229204868,0.42129568546659724,6
8.261376896149358,0.3816216035153284,6
8.27137856309385,0.3040757426698835,6
8.28138023003834,0.2612213795451811,6
8.29138189698283,0.20290698467505328,6
8.301383563927322,0.15884044316032095,6
8.311385230871812,0.11615105376393149,6
8.321386897816303,0.09367450082042111,6
8.331388564760793,0.05854906355342994,6
8.341390231705285,0.03611156094947523,6
8.351391898649775,0.013166001334106961,6
8.361393565594266,0.010811119940142559,6
8.371395232538756,0.005183088370535504,6
8.381396899483248,-0.006950623008828573,6
8.391398566427739,-0.00549345379397039,6
8.401400233372229,0.008595275404336945,6
8.41140190031672,-0.01316911752882005,6
8.42140356726121,0.006250855173768581,6
8.431405234205702,-0.01801902569843371,6
8.441406901150192,-0.0389755680451158,6
8.451408568094683,-0.059055131825152554,6
8.461410235039173,-0.05790937952696307,6
8.471411901983664,-0.0974232037183441,6
8.481413568928154,-0.11318308156089057,6
8.491415235872646,-0.18029756017834164,6
8.501416902817137,-0.2495553189475528,6
8.511418569761627,-0.2919807983369788,6
8.521420236706119,-0.3478604392505244,6
8.531421903650608,-0.40830634027103935,6
8.5414235705951,-0.477249628166685,6
8.55142523753959,-0.550096485186866,6
8.561426904484081,-0.6059501098409522,6
8.571428571428571,-0.6569032192166824,6
8.581430238373063,-0.6953617214538645,6
8.591431905317553,-0.7341287087198572,6
8.601433572262044,-0.7537366027952397,6
8.611435239206534,-0.794422374054808,6
8.621436906151025,-0.7766744194913662,6
8.631438573095517,-0.7607270464088428,6
8.641440240040007,-0.7489572293740997,6
8.651441906984498,-0.6727687080707369,6
8.661443573928988,-0.6525941159708001,6
8.67144524087348,-0.5786075651894825,6
8.68144690781797,-0.48146435329915693,6
8.691448574762461,-0.4118493590194822,6
8.70145024170695,-0.31483539936544047,6
8.711451908651442,-0.21478533995341464,6
8.721453575595932,-0.10379716513438028,6
8.731455242540424,0.010962815131098027,6
8.741456909484915,0.13193632957448534,6
8.751458576429405,0.23191367891001166,6
8.761460243373897,0.34010553741423927,6
8.771461910318386,0.44309597476690044,6
8.781463577262878,0.523059147793242,6
8.791465244207368,0.6110082898662609,6
8.80146691115186,0.6427401208129878,6
8.811468578096349,0.7242607421488094,6
8.82147024504084,0.7659915434581052,6
8.83147191198533,0.7623416192013595,6
8.841473578929822,0.7646368989467709,6
8.851475245874314,0.7689855456605859,6
8.861476912818803,0.7354700385594704,6
8.871478579763295,0.7269846869857243,6
8.881480246707785,0.6751788404409925,6
8.891481913652276,0.6378717048061545,6
8.901483580596766,0.586951266392825,6
8.911485247541258,0.5060588571663148,6
8.921486914485747,0.43835816232991565,6
8.931488581430239,0.3983464995400824,6
8.941490248374729,0.33224760347611615,6
8.95149191531922,0.2618037056885383,6
8.96149358226371,0.20967268438955636,6
8.971495249208202,0.15460317610768354,6
8.981496916152693,0.12062728686610157,6
8.991498583097183,0.07983703211302001,6
9.001500250041675,0.0660882350832745,6
9.011501916986164,0.053510556247899334,6
9.021503583930656,0.03203829477461266,6
9.031505250875146,0.020290171503786703,6
9.041506917819637,-0.004625263153629372,6
9.051508584764127,0.005422625203955489,6
9.061510251708619,-0.0036495758139637883,6
9.071511918653108,0.0010972190031336576,6
9.0815135855976,-0.0023694911966697886,6
9.091515252542091,-0.006035874600641189,6
9.101516919486581,-0.012823472178910087,6
9.111518586431073,-0.03372827081328774,6
9.121520253375563,-0.044872003165059925,6
9.131521920320054,-0.06788061167402062,6
9.141523587264544,-0.09594364234773999,6
9.151525254209036,-0.1381716200832786,6
9.161526921153525,-0.17738810140040334,6
9.171528588098017,-0.22473914060830597,6
9.181530255042507,-0.28379530366326583,6
9.191531921986998,-0.3481858457962318,6
9.20153358893149,-0.3985867036823215,6
9.21153525587598,-0.47950127692481037,6
9.221536922820471,-0.5143504291751361,6
9.231538589764961,-0.5828121365826056,6
9.241540256709452,-0.6416362498950153,6
9.251541923653942,-0.6862168720832937,6
9.261543590598434,-0.7236935762623317,6
9.271545257542924,-0.7628611245181189,6
9.281546924487415,-0.7888356140049239,6
9.291548591431905,-0.7801817390881308,6
9.301550258376396,-0.7651470993164008,6
9.311551925320888,-0.7380957712082924,6
9.321553592265378,-0.6943547065907345,6
9.33155525920987,-0.6479599178867099,6
9.34155692615436,-0.5726826892512501,6
9.35155859309885,-0.5202783082650593,6
9.36156026004334,-0.4086161350724828,6
9.371561926987832,-0.31221499789510815,6
9.381563593932322,-0.2078719031320262,6
9.391565260876813,-0.09375323028373067,6
9.401566927821303,0.0007997475511442092,6
9.411568594765795,0.10795207478508291,6
9.421570261710285,0.2305937083333232,6
9.431571928654776,0.32720250661201683,6
9.441573595599268,0.43030604293625285,6
9.451575262543757,0.5173708097959852,6
9.461576929488249,0.5808759563457273,6
9.471578596432739,0.6454334815974001,6
9.48158026337723,0.7122129037935656,6
9.49158193032172,0.7452383186150342,6
9.501583597266212,0.7753025504319084,6
9.511585264210701,0.7774077693215546,6
9.521586931155193,0.7786530910071136,6
9.531588598099683,0.7564642526625056,6
9.541590265044174,0.7380117569954485,6
9.551591931988666,0.6949213162960165,6
9.561593598933156,0.644283387132988,6
9.571595265877647,0.5968290377980068,6
9.581596932822137,0.5048567307570598,6
9.591598599766629,0.4650677512929035,6
9.601600266711118,0.38710066791805503,6
9.61160193365561,0.340633905693325,6
9.6216036006001,0.27529917262039616,6
9.631605267544591,0.21986484408989224,6
9.641606934489081,0.1802613108646935,6
9.651608601433573,0.11787534103510636,6
9.661610268378064,0.08605630251876421,6
9.671611935322554,0.06667736518349568,6
9.681613602267046,0.04980073620874243,6
9.691615269211535,0.00954056983523866,6
9.701616936156027,0.0027217391691097027,6
9.711618603100517,0.002572721571967281,6
9.721620270045008,-0.03242049854472886,6
9.731621936989498,-0.0073502586554290705,6
9.74162360393399,0.0007420099841579185,6
9.75162527087848,-0.003084961186049092,6
9.761626937822971,-0.023529186718010173,6
9.77162860476746,-0.012221741856633264,6
9.781630271711952,-0.010971077223910851,6
9.791631938656444,-0.03632736605131278,6
9.801633605600934,-0.06699119417686311,6
9.811635272545425,-0.10053382628729238,6
9.821636939489915,-0.1262007109223967,6
9.831638606434407,-0.17592919101013393,6
9.841640273378896,-0.2312053143848748,6
9.851641940323388,-0.2723279208652953,6
9.861643607267878,-0.32999195754959754,6
9.87164527421237,-0.39627735119378243,6
9.881646941156859,-0.444526282549243,6
9.89164860810135,-0.5035404620574785,6
9.901650275045842,-0.5693723996042167,6
9.911651941990332,-0.6337199285258369,6
9.921653608934824,-0.6748662034460563,6
9.931655275879313,-0.7353923504596599,6
9.941656942823805,-0.7494653195036699,6
9.951658609768295,-0.7691868854676435,6
9.961660276712786,-0.7708625393800924,6
9.971661943657276,-0.7692841001998214,6
9.981663610601768,-0.7401293848382599,6
9.991665277546257,-0.7117649733998815,6
10.001666944490749,-0.6734214409493697,6
10.01166861143524,-0.5913343250980303,6
10.02167027837973,-0.5099769228129541,6
10.031671945324222,-0.434590206767381,6
10.041673612268712,-0.3413249483910491,6
10.051675279213203,-0.24758509818270422,6
10.061676946157693,-0.13071330494051372,6
10.071678613102184,-0.029917112506676516,6
10.081680280046674,0.08770015245331277,6
10.091681946991166,0.21152488076747838,6
10.101683613935656,0.3184779279035795,6
10.111685280880147,0.41166009750102944,6
10.121686947824637,0.49302162578193215,6
10.131688614769129,0.5777902767674985,6
10.14169028171362,0.6497372883014063,6
10.15169194865811,0.6916149753019278,6
10.161693615602601,0.7435341330058008,6
10.171695282547091,0.7737694649223005,6
10.181696949491583,0.7952514369457591,6
10.191698616436073,0.7851163726652997,6
10.201700283380564,0.7623528608217718,6
10.211701950325054,0.7165108644671823,6
10.221703617269545,0.6929620279948807,6
10.231705284214035,0.6332039671968406,6
10.241706951158527,0.5912224399301462,6
10.251708618103018,0.5210408604297322,6
10.261710285047508,0.46301919192539165,6
10.271711951992,0.3986092066649625,6
10.28171361893649,0.35890874039144355,6
10.291715285880981,0.3086859934312164,6
10.30171695282547,0.21779445124577493,6
10.311718619769962,0.15767585186122987,6
10.321720286714452,0.14060170060046281,6
10.331721953658944,0.10787096888016032,6
10.341723620603434,0.06605491907987433,6
10.351725287547925,0.04020973842967669,6
10.361726954492417,0.012371197692266217,6
10.371728621436906,0.008049990013744818,6
10.381730288381398,-0.007037314549569889,6
10.391731955325888,-0.01512589319086119,6
10.40173362227038,-0.0014658330840880026,6
10.41173528921487,-0.019290130070402086,6
10.42173695615936,0.005845559333169455,6
10.43173862310385,0.0021870092108797574,6
10.441740290048342,0.00266795600305127,6
10.451741956992832,-0.02310677230824605,6
10.461743623937323,-0.03737829480812256,6
10.471745290881813,-0.05309337550977467,6
10.481746957826305,-0.08725718158422954,6
10.491748624770796,-0.121913733528198,6
10.501750291715286,-0.1691547615219779,6
10.511751958659778,-0.21856000532488185,6
10.521753625604267,-0.2639191599578689,6
10.531755292548759,-0.322573220557833,6
10.541756959493249,-0.38079926580070295,6
10.55175862643774,-0.4491521567961646,6
10.56176029338223,-0.5046987445050494,6
10.571761960326722,-0.5677449150635219,6
10.581763627271211,-0.6328436784380115,6
10.591765294215703,-0.6763940292333466,6
10.601766961160195,-0.7313840400591829,6
10.611768628104684,-0.7605915692797548,6
10.621770295049176,-0.7634775778752734,6
10.631771961993666,-0.7789051308221773,6
10.641773628938157,-0.7879836970788241,6
10.651775295882647,-0.7588625831481635,6
10.661776962827139,-0.7111741258745847,6
10.671778629771628,-0.6774903007624395,6
10.68178029671612,-0.6151003972650381,6
10.69178196366061,-0.5259122397938907,6
10.701783630605101,-0.43349799469519773,6
10.711785297549593,-0.36179780495092073,6
10.721786964494083,-0.24594983415428623,6
10.731788631438574,-0.13891915504257465,6
10.741790298383064,-0.03185912353199427,6
10.751791965327556,0.07381834608799703,6
10.761793632272045,0.1893307625450152,6
10.771795299216537,0.30122754638871413,6
10.781796966161027,0.40037158552363267,6
10.791798633105518,0.4821836216834801,6
10.801800300050008,0.5749571983355699,6
10.8118019669945,0.647043092206065,6
10.82180363393899,0.6778930569567532,6
10.831805300883481,0.7420881842823968,6
10.841806967827972,0.7687135210905269,6
10.851808634772462,0.7683411086825931,6
10.861810301716954,0.781233245760315,6
10.871811968661444,0.7488010326939166,6
10.881813635605935,0.732479832203117,6
10.891815302550425,0.6969522622445905,6
10.901816969494917,0.6361100903639755,6
10.911818636439406,0.605328112494512,6
10.921820303383898,0.5495249470080554,6
10.931821970328388,0.4904813196349201,6
10.94182363727288,0.4265348197747446,6
10.95182530421737,0.34830787875355246,6
10.96182697116186,0.2835213779644044,6
10.971828638106352,0.2446348004284154,6
10.981830305050842,0.19817283883517214,6
10.991831971995333,0.1380583474625034,6
11.001833638939823,0.10504757745978885,6
11.011835305884315,0.06167462771734683,6
11.021836972828805,0.058003680781241115,6
11.031838639773296,0.033670533171513306,6
11.041840306717786,0.0029464502099122315,6
11.051841973662277,0.006699410697333846,6
11.061843640606769,0.019645296558818602,6
11.071845307551259,0.003763165313052521,6
11.08184697449575,0.005018116176963759,6
11.09184864144024,-0.003255398149614326,6
11.101850308384732,-0.009041484732997637,6
11.111851975329222,-0.014968013856508512,6
11.121853642273713,-0.016653851282019606,6
11.131855309218203,-0.038228738393852456,6
11.141856976162694,-0.05291179533789127,6
11.151858643107184,-0.07296111830040651,6
11.161860310051676,-0.11222101226947148,6
11.171861976996166,-0.17636099718758377,6
11.181863643940657,-0.20731827191609425,6
11.191865310885149,-0.25931394234004995,6
11.201866977829638,-0.3325003635909329,6
11.21186864477413,-0.37681697580696627,6
11.22187031171862,-0.4403152772411559,6
11.231871978663111,-0.510161106682706,6
11.241873645607601,-0.5605299370854085,6
11.251875312552093,-0.634094094977761,6
11.261876979496583,-0.676958295436597,6
11.271878646441074,-0.6997852400541285,6
11.281880313385564,-0.7366389507200475,6
11.291881980330055,-0.7542216937764047,6
11.301883647274547,-0.7666153131990299,6
11.311885314219037,-0.7776608400544468,6
11.321886981163528,-0.7400418610833304,6
11.331888648108018,-0.7207896042685815,6
11.34189031505251,-0.6676119008719862,6
11.351891981997,-0.6383459437314474,6
11.361893648941491,-0.5562738143681363,6
11.37189531588598,-0.45169982942081444,6
11.381896982830472,-0.36450715484180024,6
11.391898649774962,-0.2532118680056263,6
11.401900316719454,-0.15205337890902573,6
11.411901983663945,-0.03679925055164311,6
11.421903650608435,0.08010404228761599,6
11.431905317552927,0.16735151358533173,6
11.441906984497416,0.2836868421121904,6
11.451908651441908,0.38222010124386446,6
11.461910318386398,0.49215459262980943,6
11.47191198533089,0.5535970323888765,6
11.481913652275379,0.6438677685591039,6
11.49191531921987,0.6799899637077126,6
11.50191698616436,0.7355667432430004,6
11.511918653108852,0.7628741742500286,6
11.521920320053344,0.7638472294725509,6
11.531921986997833,0.7841799041231792,6
11.541923653942325,0.7795208237532031,6
11.551925320886815,0.7481316663090455,6
11.561926987831306,0.7113740398218873,6
11.571928654775796,0.6600137398349107,6
11.581930321720288,0.6188668121968173,6
11.591931988664777,0.5500845338187382,6
11.601933655609269,0.4825729807186868,6
11.611935322553759,0.4297746372480278,6
11.62193698949825,0.34639625449376377,6
11.63193865644274,0.3071212987644648,6
11.641940323387232,0.2488092354582734,6
11.651941990331723,0.20475327408885538,6
11.661943657276213,0.15540998132352674,6
11.671945324220705,0.09800298863604509,6
11.681946991165194,0.08281814994863154,6
11.691948658109686,0.03596634865789035,6
11.701950325054176,0.03325166714735835,6
11.711951991998667,-0.005625548740211948,6
11.721953658943157,0.007788539439538932,6
11.731955325887649,0.005226644993233208,6
11.741956992832138,0.012393967122781187,6
11.75195865977663,0.011243428177033978,6
11.761960326721121,-0.0025017710371683707,6
11.771961993665611,0.006736120580006456,6
11.781963660610103,-0.024903804600595787,6
11.791965327554593,-0.004549304891519224,6
11.801966994499084,-0.006533157938276829,6
11.811968661443574,-0.06013638867917847,6
11.821970328388065,-0.05610876205326687,6
11.831971995332555,-0.1140513314119346,6
11.841973662277047,-0.15341644610036181,6
11.851975329221537,-0.20308481415173663,6
11.861976996166028,-0.24978674771632298,6
11.87197866311052,-0.31225805617277475,6
11.88198033005501,-0.38300437017886085,6
11.891981996999501,-0.4274035985464042,6
11.90198366394399,-0.5005296443697378,6
11.911985330888482,-0.5608563066213302,6
11.921986997832972,-0.6043101680385197,6
11.931988664777464,-0.6581273650135576,6
11.941990331721954,-0.7072751630208086,6
11.951991998666445,-0.7439635378488786,6
11.961993665610935,-0.764643564765215,6
11.971995332555426,-0.7481626776613554,6
11.981996999499916,-0.7697217549455648,6
11.991998666444408,-0.7540906352519753,6
12.0020003333889,-0.7431428981150694,6
12.01200200033339,-0.6833829822226013,6
12.02200366727788,-0.6370906283284007,6
12.03200533422237,-0.5412459541681243,6
12.042007001166862,-0.48719616059154475,6
12.052008668111352,-0.3879902377672663,6
12.062010335055843,-0.27625063258444205,6
12.072012002000333,-0.17160070910846012,6
12.082013668944825,-0.05162404349912696,6
12.092015335889315,0.056751834546164406,6
12.102017002833806,0.16222780279391855,6
12.112018669778298,0.27477681538228693,6
12.122020336722787,0.36454743267113604,6
12.132022003667279,0.45732513977129,6
12.142023670611769,0.5428714623091913,6
12.15202533755626,0.6166709420302053,6
12.16202700450075,0.6795095750748427,6
12.172028671445242,0.7236086975713791,6
12.182030338389731,0.7697608845243495,6
12.192032005334223,0.7690977684914507,6
12.202033672278713,0.7623050290413668,6
12.212035339223204,0.7704353077816315,6
12.222037006167696,0.7496785433990014,6
12.232038673112186,0.7301779812213957,6
12.242040340056677,0.6645189386423516,6
12.252042007001167,0.6209003702075424,6
12.262043673945659,0.5494877537665274,6
12.272045340890148,0.4947475505732394,6
12.28204700783464,0.451827011609009,6
12.29204867477913,0.3822926419411472,6
12.302050341723621,0.33166517275877444,6
12.312052008668111,0.2547097601427999,6
12.322053675612603,0.20044934427239625,6
12.332055342557092,0.14168530048202768,6
12.342057009501584,0.11420696140048854,6
12.352058676446076,0.07615191124084546,6
12.362060343390565,0.059016424446844205,6
12.372062010335057,0.03483455102535023,6
12.382063677279547,0.02423326893357044,6
12.392065344224038,0.005451333965931487,6
12.402067011168528,-0.0029444054016920526,6
12.41206867811302,-0.0031602001013040257,6
12.42207034505751,0.006763437471538421,6
12.432072012002001,0.002439829099328508,6
12.44207367894649,-0.0032182846730461766,6
12.452075345890982,-0.023536659347520573,6
12.462077012835474,-0.006201468454900716,6
12.472078679779964,-0.03527223573028723,6
12.482080346724455,-0.058202915635828724,6
12.492082013668945,-0.09047271619124833,6
12.502083680613437,-0.0991476307747147,6
12.512085347557926,-0.1275490638272537,6
12.522087014502418,-0.1668899838940845,6
12.532088681446908,-0.22515763427994945,6
12.5420903483914,-0.2899265806507441,6
12.552092015335889,-0.37338092012754737,6
12.56209368228038,-0.4246677359734522,6
12.572095349224872,-0.4917273313882703,6
12.582097016169362,-0.5303712905162221,6
12.592098683113853,-0.6178677351710031,6
12.602100350058343,-0.6414059585169166,6
12.612102017002835,-0.6956005110909781,6
12.622103683947325,-0.7382645098609874,6
12.632105350891816,-0.7547650870983509,6
12.642107017836306,-0.7584553791983812,6
12.652108684780798,-0.7724501664712141,6
12.662110351725287,-0.7566720338868482,6
12.672112018669779,-0.737789969106272,6
12.682113685614269,-0.6878462391671469,6
12.69211535255876,-0.6386033793837929,6
12.702117019503252,-0.5486825355264012,6
12.712118686447742,-0.4905994550839935,6
12.722120353392233,-0.38215961725449454,6
12.732122020336723,-0.291354638722646,6
12.742123687281214,-0.17500943355857454,6
12.752125354225704,-0.07560486901733258,6
12.762127021170196,0.031708061007163765,6
12.772128688114686,0.13430495912956578,6
12.782130355059177,0.2677121731378846,6
12.792132022003667,0.3691510496755253,6
12.802133688948159,0.4412936733745806,6
12.81213535589265,0.5209109954242912,6
12.82213702283714,0.6184158544563733,6
12.832138689781631,0.6786732904835128,6
12.842140356726121,0.7301941889489053,6
12.852142023670613,0.7507292887014042,6
12.862143690615103,0.7683466235181889,6
12.872145357559594,0.7716052323278386,6
12.882147024504084,0.776636158651793,6
12.892148691448575,0.7640410130238382,6
12.902150358393065,0.7268491846122062,6
12.912152025337557,0.6909128873860882,6
12.922153692282048,0.627047552511971,6
12.932155359226538,0.5688586927899698,6
12.94215702617103,0.5027303782857657,6
12.95215869311552,0.4520569032793108,6
12.962160360060011,0.3758467486215369,6
12.9721620270045,0.33077222415018076,6
12.982163693948992,0.2694810593887317,6
12.992165360893482,0.19690386802557802,6
13.002167027837974,0.1691751176504361,6
13.012168694782464,0.13215870144466688,6
13.022170361726955,0.06720932690684854,6
13.032172028671445,0.04079610761796939,6
13.042173695615936,0.03912637545462162,6
13.052175362560428,0.01576121743423739,6
13.062177029504918,-0.00011851259768432335,6
13.07217869644941,0.0013155689313464657,6
13.0821803633939,-0.005724421616142317,6
13.09218203033839,-0.020752013992327886,6
13.10218369728288,-0.001653473488004489,6
13.112185364227372,-0.00403104800618561,6
13.122187031171862,-0.006317950632235895,6
13.132188698116353,-0.005000813293609977,6
13.142190365060843,-0.02213468511718777,6
13.152192032005335,-0.05298035924554364,6
13.162193698949826,-0.05727231629842641,6
13.172195365894316,-0.09736293810146905,6
13.182197032838808,-0.13033625575446853,6
13.192198699783297,-0.18617616141082063,6
13.202200366727789,-0.24614843027437497,6
13.212202033672279,-0.30260617090148173,6
13.22220370061677,-0.3366493896248042,6
13.23220536756126,-0.40508794044406865,6
13.242207034505752,-0.46466304500426653,6
13.252208701450241,-0.5423891108372472,6
13.262210368394733,-0.5947875758422062,6
13.272212035339225,-0.6461631807834972,6
13.282213702283714,-0.6930909143234709,6
13.292215369228206,-0.722706096608958,6
13.302217036172696,-0.7477648801553125,6
13.312218703117187,-0.747717750982848,6
13.322220370061677,-0.762913297959154,6
13.332222037006169,-0.7501633932009303,6
13.342223703950658,-0.7347596344115009,6
13.35222537089515,-0.6903877683843427,6
13.36222703783964,-0.6411841995479094,6
13.372228704784131,-0.5705498409205518,6
13.382230371728621,-0.5055171723577271,6
13.392232038673113,-0.3966321499101443,6
13.402233705617604,-0.29698436173233594,6
13.412235372562094,-0.20405399800999477,6
13.422237039506586,-0.10021769199150278,6
13.432238706451075,0.03407801518205609,6
13.442240373395567,0.14987117177031203,6
13.452242040340057,0.2373517246385025,6
13.462243707284548,0.3578825434714831,6
13.472245374229038,0.4398565126816538,6
13.48224704117353,0.5254761975824386,6
13.49224870811802,0.5863584396837941,6
13.502250375062511,0.6733283435761029,6
13.512252042007002,0.7205344402799261,6
13.522253708951492,0.7581711702341675,6
13.532255375895984,0.7831660543031593,6
13.542257042840474,0.7785426945437713,6
13.552258709784965,0.7751950467751177,6
13.562260376729455,0.7563273898880363,6
13.572262043673947,0.6989234397074513,6
13.582263710618436,0.700437954566901,6
13.592265377562928,0.6425558207755612,6
13.602267044507418,0.5681826294173574,6
13.61226871145191,0.5298872171157112,6
13.6222703783964,0.44682842963393243,6
13.63227204534089,0.37918411635231253,6
13.642273712285382,0.33514129082156174,6
13.652275379229872,0.26779826077647934,6
13.662277046174363,0.20102250725695636,6
13.672278713118853,0.17052142455148675,6
13.682280380063345,0.11421568034698165,6
13.692282047007835,0.10287649673882279,6
13.702283713952326,0.05791951320191848,6
13.712285380896816,0.03282972645739311,6
13.722287047841307,0.0017288687578714372,6
13.732288714785797,0.0023756747992603397,6
13.742290381730289,-0.006638520058142871,6
13.75229204867478,0.005579699819459563,6
13.76229371561927,0.021675605653489964,6
13.772295382563762,0.010802257266888096,6
13.782297049508252,-0.005878176098661352,6
13.792298716452743,0.007205012759284667,6
13.802300383397233,-0.01312000664648232,6
13.812302050341724,-0.02063615686510016,6
13.822303717286214,-0.05551715132703367,6
13.832305384230706,-0.06772639346550072,6
13.842307051175196,-0.09658291261331224,6
13.852308718119687,-0.1432354239225841,6
13.862310385064179,-0.181818800196029,6
13.872312052008668,-0.2424266914857448,6
13.88231371895316,-0.29357671504469185,6
13.89231538589765,-0.3539016546220435,6
13.902317052842141,-0.4085519133656912,6
13.912318719786631,-0.4755732603629441,6
13.922320386731123,-0.5310346845825574,6
13.932322053675612,-0.5817721068902614,6
13.942323720620104,-0.6390969273943888,6
13.952325387564594,-0.6825463239117796,6
13.962327054509085,-0.7329687150739074,6
13.972328721453577,-0.767803620328569,6
13.982330388398067,-0.7779687287326573,6
13.992332055342558,-0.7776622225819433,6
14.002333722287048,-0.754732311464451,6
14.01233538923154,-0.7425243374829221,6
14.02233705617603,-0.6948325155764897,6
14.032338723120521,-0.655591957752858,6
14.04234039006501,-0.5977703964901377,6
14.052342057009502,-0.5056969832424947,6
14.062343723953992,-0.4200699643673718,6
14.072345390898484,-0.32375535363359303,6
14.082347057842973,-0.23605385452085312,6
14.092348724787465,-0.10922142001161399,6
14.102350391731957,-0.009786303002051704,6
14.112352058676446,0.11105815026716305,6
14.122353725620938,0.24002967639814296,6
14.132355392565428,0.3324748571410564,6
14.14235705950992,0.4256597249404591,6
14.152358726454409,0.5023069601637432,6
14.1623603933989,0.5901562579563147,6
14.17236206034339,0.648418349938573,6
14.182363727287882,0.7050067994450409,6
14.192365394232372,0.7444128264226783,6
14.202367061176863,0.7624869245212876,6
14.212368728121355,0.7699305900585569,6
14.222370395065845,0.7645124144695999,6
14.232372062010336,0.7546740455140624,6
14.242373728954826,0.7314615049651287,6
14.252375395899318,0.687509049168012,6
14.262377062843807,0.6347658799450221,6
14.272378729788299,0.5903428173402685,6
14.282380396732789,0.5109831956646368,6
14.29238206367728,0.46810714223535393,6
14.30238373062177,0.4090036867696556,6
14.312385397566262,0.3513312371001762,6
14.322387064510753,0.2806100432936047,6
14.332388731455243,0.2051735771277558,6
14.342390398399735,0.20269686576612406,6
14.352392065344224,0.14160699866784365,6
14.362393732288716,0.09660131579973233,6
14.372395399233206,0.06964503324970842,6
14.382397066177697,0.023874795278322127,6
14.392398733122187,0.01975584947678235,6
14.402400400066679,0.0009344333503701688,6
14.412402067011168,0.00798943805143674,6
14.42240373395566,-0.004699500986497924,6
14.432405400900151,0.009727893551897262,6
14.442407067844641,0.00326744827038776,6
14.452408734789133,0.0058567912141086285,6
14.462410401733623,0.0004830235992823121,6
14.472412068678114,-0.011778525756091831,6
14.482413735622604,-0.04047072941519543,6
14.492415402567095,-0.03690336544075371,6
14.502417069511585,-0.06487772860174398,6
14.512418736456077,-0.11213091931403443,6
14.522420403400567,-0.12447769308338448,6
14.532422070345058,-0.18001310198118514,6
14.542423737289548,-0.21534296371232473,6
14.55242540423404,-0.2743226787220919,6
14.562427071178531,-0.3368152542255584,6
14.57242873812302,-0.3972588891267338,6
14.582430405067512,-0.4783016545381874,6
14.592432072012002,-0.5132369030906113,6
14.602433738956494,-0.5921714227674608,6
14.612435405900984,-0.6371092734810844,6
14.622437072845475,-0.6831849311276134,6
14.632438739789965,-0.7309671063317091,6
14.642440406734456,-0.7548366608079607,6
14.652442073678946,-0.7745812234504819,6
14.662443740623438,-0.7767835035496814,6
14.67244540756793,-0.7714415205136642,6
14.68244707451242,-0.7513286291437036,6
14.69244874145691,-0.7125040771812015,6
14.7024504084014,-0.6517108321526948,6
14.712452075345892,-0.5820439160960544,6
14.722453742290382,-0.5086608044061164,6
14.732455409234873,-0.43118102066509517,6
14.742457076179363,-0.3392659393949123,6
14.752458743123855,-0.24569211110465064,6
14.762460410068345,-0.14672645995496908,6
14.772462077012836,-0.01644510049719922,6
14.782463743957328,0.12258198580958561,6
14.792465410901817,0.22072882873271693,6
14.802467077846309,0.3243735701709213,6
14.812468744790799,0.40260402543157575,6
14.82247041173529,0.5031366807378699,6
14.83247207867978,0.5838928539534259,6
14.842473745624272,0.6346301371312824,6
14.852475412568761,0.6992256105118577,6
14.862477079513253,0.7401455538562582,6
14.872478746457743,0.7719345566668112,6
14.882480413402234,0.767795622881472,6
14.892482080346724,0.7754905728625079,6
14.902483747291216,0.7574063856411748,6
14.912485414235707,0.7261941552300926,6
14.922487081180197,0.7071236531928184,6
14.932488748124689,0.6641138250817483,6
14.942490415069178,0.5901721132033688,6
14.95249208201367,0.528745998295124,6
14.96249374895816,0.47891362677395954,6
14.972495415902651,0.4158444138160313,6
14.982497082847141,0.34432772059896116,6
14.992498749791633,0.2816100110097859,6
15.002500416736122,0.2340722714950328,6
15.012502083680614,0.19024679338061093,6
15.022503750625106,0.15540666850698326,6
15.032505417569595,0.09342816896713632,6
15.042507084514087,0.0600581856008389,6
15.052508751458577,0.03714068008679245,6
15.062510418403068,0.009809055865643998,6
15.072512085347558,0.010538377730279682,6
15.08251375229205,-0.0017365311887548767,6
15.09251541923654,0.0009257556705895561,6
15.102517086181031,0.009643059185707993,6
15.11251875312552,-0.0007443823353870873,6
15.122520420070012,-0.009721079785139848,6
15.132522087014504,0.005194258823374808,6
15.142523753958994,0.005412891634201151,6
15.152525420903485,-0.02617945114821663,6
15.162527087847975,-0.043453586323458734,6
15.172528754792467,-0.04223187117357702,6
15.182530421736956,-0.0764794416241949,6
15.192532088681448,-0.10972310770681692,6
15.202533755625938,-0.16032999617186905,6
15.21253542257043,-0.21438451324859983,6
15.222537089514919,-0.26480308915869116,6
15.23253875645941,-0.305255078028044,6
15.2425404234039,-0.3851435623429423,6
15.252542090348392,-0.468239777996049,6
15.262543757292883,-0.49688714734082057,6
15.272545424237373,-0.5624634125120702,6
15.282547091181865,-0.6099418279230341,6
15.292548758126355,-0.6865483948151264,6
15.302550425070846,-0.7164606087893919,6
15.312552092015336,-0.7414825821360909,6
15.322553758959828,-0.7868883208790387,6
15.332555425904317,-0.7829487527174521,6
15.342557092848809,-0.7651550176528706,6
15.352558759793299,-0.7457372970259915,6
15.36256042673779,-0.7091581290816951,6
15.372562093682282,-0.6645955711979827,6
15.382563760626772,-0.6193633797099891,6
15.392565427571263,-0.519843335459218,6
15.402567094515753,-0.4463212153486167,6
15.412568761460244,-0.3439905517028818,6
15.422570428404734,-0.23147494656590725,6
15.432572095349226,-0.1407599033346415,6
15.442573762293716,-0.029274782890549262,6
15.452575429238207,0.07727888095577676,6
15.462577096182697,0.18261168752704637,6
15.472578763127188,0.3028641349721611,6
15.48258043007168,0.4076605930948874,6
15.49258209701617,0.4917418901114476,6
15.502583763960661,0.5647651146923585,6
15.512585430905151,0.6397807140696146,6
15.522587097849643,0.6890832973097314,6
15.532588764794133,0.7476121320932345,6
15.542590431738624,0.7673704570862467,6
15.552592098683114,0.7769458068503382,6
15.562593765627605,0.788109718975819,6
15.572595432572095,0.7446325722328212,6
15.582597099516587,0.7481032154910487,6
15.592598766461077,0.7125169245435746,6
15.602600433405568,0.6692891121530349,6
15.61260210035006,0.5921028700605445,6
15.62260376729455,0.5585680324988773,6
15.632605434239041,0.4499516154887203,6
15.64260710118353,0.4188235258693329,6
15.652608768128022,0.35249954359158486,6
15.662610435072512,0.29972871699247033,6
15.672612102017004,0.25280350490248277,6
15.682613768961494,0.17540759232004688,6
15.692615435905985,0.13571416443819667,6
15.702617102850475,0.1086947259557686,6
15.712618769794966,0.08555762445278192,6
15.722620436739458,0.03852877565478845,6
15.732622103683948,0.03427963557524817,6
15.74262377062844,0.013802098259528526,6
15.752625437572929,0.00786706162269189,6
15.76262710451742,-0.011938223759225,6
15.77262877146191,-0.000864058806040134,6
15.782630438406402,0.01603175638558279,6
15.792632105350892,-0.010897601435521598,6
15.802633772295383,-0.008883704212600017,6
15.812635439239873,0.004730013548810584,6
15.822637106184365,-0.033855566617852315,6
15.832638773128856,-0.03894461386783348,6
15.842640440073346,-0.061799534777717505,6
15.852642107017838,-0.0766746181494173,6
15.862643773962327,-0.12232356050718197,6
15.872645440906819,-0.15196887620511906,6
15.882647107851309,-0.2034866572515793,6
15.8926487747958,-0.2595742074194105,6
15.90265044174029,-0.32812532063228195,6
15.912652108684782,-0.3780681239058065,6
15.922653775629271,-0.43080460042170804,6
15.932655442573763,-0.5156200836887402,6
15.942657109518253,-0.5665480455170336,6
15.952658776462744,-0.6236376345559798,6
15.962660443407236,-0.684997097298494,6
15.972662110351726,-0.731842453121261,6
15.982663777296217,-0.7255938747698324,6
15.992665444240707,-0.7691841167795648,6
16.002667111185197,-0.771961636290093,6
16.01266877812969,-0.8036690965685471,6
16.02267044507418,-0.7554816066405662,6
16.03267211201867,-0.7285701868864154,6
16.04267377896316,-0.6975520339124709,6
16.052675445907653,-0.6353786682703332,6
16.062677112852143,-0.5493113501034542,6
16.072678779796632,-0.4545075203449625,6
16.082680446741126,-0.3653849554096821,6
16.092682113685616,-0.2720811748896114,6
16.102683780630105,-0.1568962272821404,6
16.112685447574595,-0.056836365195420464,6
16.12268711451909,0.0760793981782843,6
16.132688781463578,0.1764582902705839,6
16.142690448408068,0.27959686416922797,6
16.152692115352558,0.393614679287744,6
16.16269378229705,0.47381820362193056,6
16.17269544924154,0.5746632148216865,6
16.18269711618603,0.6271781629422637,6
16.192698783130524,0.7019955299926218,6
16.202700450075014,0.7324608123280062,6
16.212702117019504,0.7730735767391075,6
16.222703783963993,0.7625237692383015,6
16.232705450908487,0.7846626414861081,6
16.242707117852976,0.7771138614242314,6
16.252708784797466,0.744244120933785,6
16.262710451741956,0.7026812454136779,6
16.27271211868645,0.6830982764574328,6
16.28271378563094,0.6090603352415359,6
16.29271545257543,0.5531721262494206,6
16.302717119519922,0.48430603561234165,6
16.312718786464412,0.41788838248311205,6
16.322720453408902,0.3535574371502739,6
16.33272212035339,0.29468036363857436,6
16.342723787297885,0.24114620195700942,6
16.352725454242375,0.18187866218421844,6
16.362727121186865,0.14371637215226948,6
16.372728788131354,0.09747786294922776,6
16.382730455075848,0.0848588239759157,6
16.392732122020337,0.053598788244597934,6
16.402733788964827,0.03124826764169347,6
16.41273545590932,0.011516065360405312,6
16.42273712285381,0.02586363620126943,6
16.4327387897983,0.00944729149974902,6
16.44274045674279,0.008292696614688733,6
16.452742123687283,0.00016840769033483474,6
16.462743790631773,0.014313622181130713,6
16.472745457576263,-0.0038102693691595005,6
16.482747124520753,-0.015043579422184084,6
16.492748791465246,-0.022000491787774426,6
16.502750458409736,-0.031207388541447532,6
16.512752125354226,-0.05433951250961648,6
16.522753792298715,-0.07350233518582194,6
16.53275545924321,-0.10240984673784954,6
16.5427571261877,-0.15504528404209889,6
16.55275879313219,-0.20349974450917474,6
16.56276046007668,-0.27177280058509645,6
16.57276212702117,-0.2975128813731303,6
16.58276379396566,-0.3670304538062077,6
16.59276546091015,-0.45193379263112904,6
16.602767127854644,-0.4985430438561165,6
16.612768794799134,-0.5536338142873038,6
16.622770461743624,-0.5971828303879421,6
16.632772128688114,-0.6586449022549192,6
16.642773795632607,-0.7088378828143316,6
16.652775462577097,-0.7457201090500758,6
16.662777129521587,-0.7711374926008877,6
16.67277879646608,-0.7557353103538573,6
16.68278046341057,-0.7469987558485008,6
16.69278213035506,-0.7662118267599687,6
16.70278379729955,-0.734981198547366,6
16.712785464244043,-0.6756094987928015,6
16.722787131188532,-0.6149095747998244,6
16.732788798133022,-0.5504402405727886,6
16.742790465077512,-0.48581752581769255,6
16.752792132022005,-0.37603671540772143,6
16.762793798966495,-0.2890263098110878,6
16.772795465910985,-0.16401002866464007,6
16.782797132855478,-0.057726728903331026,6
16.792798799799968,0.039822677374467264,6
16.802800466744458,0.16210694388345193,6
16.812802133688947,0.25656558556687864,6
16.82280380063344,0.3777832079297469,6
16.83280546757793,0.4661131073913644,6
16.84280713452242,0.5494060886039958,6
16.85280880146691,0.6293937548796465,6
16.862810468411404,0.6809268297237377,6
16.872812135355893,0.7355329877682153,6
16.882813802300383,0.7606456798535646,6
16.892815469244876,0.7901471178311953,6
16.902817136189366,0.76797240401969,6
16.912818803133856,0.7617260621329709,6
16.922820470078346,0.7598970623294943,6
16.93282213702284,0.7027930317411046,6
16.94282380396733,0.6585178374381502,6
16.95282547091182,0.6034488450972642,6
16.96282713785631,0.5454122226904746,6
16.972828804800802,0.49862611565899906,6
16.98283047174529,0.43782206464865125,6
16.99283213868978,0.3741638741368853,6
17.002833805634275,0.3018335048849878,6
17.012835472578764,0.2703898369203407,6
17.022837139523254,0.22203773621999282,6
17.032838806467744,0.1579694321979451,6
17.042840473412237,0.13174887721203482,6
17.052842140356727,0.07832822908995031,6
17.062843807301217,0.04266426755894998,6
17.072845474245707,0.03874732720150974,6
17.0828471411902,0.009972305963578901,6
17.09284880813469,-0.0038134997270886373,6
17.10285047507918,0.017649849763686935,6
17.112852142023673,0.00012678917295086468,6
17.122853808968163,0.004376718524474988,6
17.132855475912653,0.005659019400055765,6
17.142857142857142,0.0116511193100036,6
17.152858809801636,-0.01723046263976935,6
17.162860476746125,-0.009435513319457065,6
17.172862143690615,-0.03670602909173805,6
17.182863810635105,-0.04543256597821622,6
17.1928654775796,-0.07611247345696473,6
17.202867144524088,-0.11087948241278359,6
17.212868811468578,-0.16781551341904546,6
17.222870478413068,-0.19978274459353237,6
17.23287214535756,-0.24337498426337795,6
17.24287381230205,-0.29518862150923353,6
17.25287547924654,-0.36608201680294944,6
17.262877146191034,-0.43089665463473853,6
17.272878813135524,-0.4942281689338428,6
17.282880480080014,-0.5533905494555702,6
17.292882147024503,-0.5932271430089707,6
17.302883813968997,-0.6576264890603151,6
17.312885480913486,-0.6980212695328104,6
17.322887147857976,-0.7120967936201705,6
17.332888814802466,-0.7795407549751211,6
17.34289048174696,-0.7859676637925119,6
17.35289214869145,-0.7819767254878703,6
17.36289381563594,-0.7606699814563733,6
17.372895482580432,-0.7430266710433412,6
17.382897149524922,-0.6961626812851658,6
17.392898816469412,-0.6348031995718234,6
17.4029004834139,-0.551755256204361,6
17.412902150358395,-0.4910647421251066,6
17.422903817302885,-0.3909123703391032,6
17.432905484247375,-0.2932787389665099,6
17.442907151191864,-0.19006273152453185,6
17.452908818136358,-0.08739712947093284,6
17.462910485080847,0.04543354454934904,6
17.472912152025337,0.1323113315301824,6
17.48291381896983,0.26878443751010117,6
17.49291548591432,0.35773530859856706,6
17.50291715285881,0.4540888387723554,6
17.5129188198033,0.5338054667958099,6
17.522920486747793,0.6237665693296611,6
17.532922153692283,0.6748721731612166,6
17.542923820636773,0.7373183995456474,6
17.552925487581263,0.7709832961451761,6
17.562927154525756,0.7742313079099631,6
17.572928821470246,0.7759123780480707,6
17.582930488414735,0.7754119483331962,6
17.59293215535923,0.7485276515716807,6
17.60293382230372,0.7198896946226319,6
17.61293548924821,0.6644371413143236,6
17.622937156192698,0.6262743587850292,6
17.63293882313719,0.5633216346755086,6
17.64294049008168,0.5007245762866995,6
17.65294215702617,0.4589422421872732,6
17.66294382397066,0.374223296280451,6
17.672945490915154,0.319709304524479,6
17.682947157859644,0.26334229565381523,6
17.692948824804134,0.20300048979213617,6
17.702950491748627,0.1499208143786254,6
17.712952158693117,0.12524583668652217,6
17.722953825637607,0.07321342641185884,6
17.732955492582096,0.06269895960413532,6
17.74295715952659,0.019189477333382214,6
17.75295882647108,0.02475135628600719,6
17.76296049341557,0.02012892449038339,6
17.77296216036006,0.006446108660682921,6
17.782963827304552,0.009564734734536274,6
17.792965494249042,0.0016647788857650757,6
17.802967161193532,-0.013255147413872794,6
17.812968828138025,-0.0021248743261751087,6
17.822970495082515,-0.014469362992089412,6
17.832972162027005,0.018600688041478,6
17.842973828971495,-0.01827528340392902,6
17.852975495915988,-0.04260259032732639,6
17.862977162860478,-0.060003762589228724,6
17.872978829804968,-0.0969879983760786,6
17.882980496749457,-0.13796928789010862,6
17.89298216369395,-0.20944552988116377,6
17.90298383063844,-0.22311941707732275,6
17.91298549758293,-0.2744716832974118,6
17.92298716452742,-0.3565899238116974,6
17.932988831471913,-0.4237898844025936,6
17.942990498416403,-0.4763480675283419,6
17.952992165360893,-0.536789902422618,6
17.962993832305386,-0.6056788642935415,6
17.972995499249876,-0.642661977659934,6
17.982997166194366,-0.6847275748415949,6
17.992998833138856,-0.7301731228901525,6
18.00300050008335,-0.7632898084832045,6
18.01300216702784,-0.7610444164888378,6
18.02300383397233,-0.8002417362009373,6
18.03300550091682,-0.7727164900565087,6
18.04300716786131,-0.747109072845548,6
18.0530088348058,-0.6709886388257601,6
18.06301050175029,-0.6404489834340391,6
18.073012168694785,-0.5731454680638683,6
18.083013835639274,-0.49005047745969166,6
18.093015502583764,-0.39455560829770947,6
18.103017169528254,-0.29794489639903415,6
18.113018836472747,-0.20866795971958058,6
18.123020503417237,-0.09810054766558902,6
18.133022170361727,0.025445789233917288,6
18.143023837306217,0.14301399336494852,6
18.15302550425071,0.23763167263078447,6
18.1630271711952,0.3397441436481632,6
18.17302883813969,0.4403521954945498,6
18.183030505084183,0.5163588605581871,6
18.193032172028673,0.6037825853879546,6
18.203033838973163,0.6749942475354854,6
18.213035505917652,0.7289421658030962,6
18.223037172862146,0.7573827969511004,6
18.233038839806635,0.7819064874018297,6
18.243040506751125,0.7731589194060575,6
18.253042173695615,0.77961807251686,6
18.26304384064011,0.757691007912274,6
18.273045507584598,0.721103814357068,6
18.283047174529088,0.6936798264714849,6
18.29304884147358,0.6367546578896499,6
18.30305050841807,0.5778516861042641,6
18.31305217536256,0.5045176808127523,6
18.32305384230705,0.45403444819048666,6
18.333055509251544,0.3975638596461282,6
18.343057176196034,0.3322126000052636,6
18.353058843140523,0.26223888730202527,6
18.363060510085013,0.21976412302278306,6
18.373062177029507,0.16386089619502614,6
18.383063843973996,0.13527887166031027,6
18.393065510918486,0.08368106508862609,6
18.40306717786298,0.065724405313658,6
18.41306884480747,0.03023461960015087,6
18.42307051175196,0.02174559610660265,6
18.43307217869645,0.025262694845804314,6
18.443073845640942,0.010917963125424807,6
18.453075512585432,-0.0012001836543871318,6
18.463077179529922,-0.009299063117595126,6
18.47307884647441,-0.007821287062951605,6
18.483080513418905,0.0016714569650981524,6
18.493082180363395,0.01894990160117539,6
18.503083847307884,-0.020514304793953313,6
18.513085514252378,-0.016466409994324742,6
18.523087181196868,-0.04112005061085626,6
18.533088848141357,-0.0643161841436636,6
18.543090515085847,-0.08030690316000107,6
18.55309218203034,-0.13058516132307918,6
18.56309384897483,-0.1722481807913292,6
18.57309551591932,-0.2298257541597858,6
18.58309718286381,-0.27525866896691165,6
18.593098849808303,-0.34917389953512207,6
18.603100516752793,-0.3861740170290711,6
18.613102183697283,-0.4668688418410254,6
18.623103850641776,-0.5309549315121104,6
18.633105517586266,-0.5888347820044861,6
18.643107184530756,-0.6482977409362938,6
18.653108851475245,-0.6942563399634311,6
18.66311051841974,-0.7390198049956525,6
18.67311218536423,-0.7489696261365363,6
18.68311385230872,-0.7640354028966706,6
18.693115519253208,-0.7826873594594381,6
18.7031171861977,-0.7698988692145183,6
18.71311885314219,-0.7433168393746756,6
18.72312052008668,-0.721986089341311,6
18.73312218703117,-0.6480560947310756,6
18.743123853975664,-0.5854545675789589,6
18.753125520920154,-0.5157734710460371,6
18.763127187864644,-0.42866527883155403,6
18.773128854809137,-0.3209481831946894,6
18.783130521753627,-0.21254938190865855,6
18.793132188698117,-0.1154793966138996,6
18.803133855642606,0.022759071802090837,6
18.8131355225871,0.11339457328186701,6
18.82313718953159,0.21824901345074985,6
18.83313885647608,0.33778001005057884,6
18.84314052342057,0.41919812772883874,6
18.853142190365062,0.5039822917033286,6
18.863143857309552,0.6069012131163765,6
18.873145524254042,0.6548448975617606,6
18.883147191198535,0.7376599442177384,6
18.893148858143025,0.7421286058548644,6
18.903150525087515,0.7527715415589544,6
18.913152192032005,0.7733919767535274,6
18.923153858976498,0.7702420422168205,6
18.933155525920988,0.7383261329050878,6
18.943157192865478,0.7273692528503957,6
18.953158859809967,0.6861289676578712,6
18.96316052675446,0.6472280107238078,6
18.97316219369895,0.572719839743868,6
18.98316386064344,0.5177112155366727,6
18.993165527587934,0.47212682563623826,6
19.003167194532423,0.3907070564909178,6
19.013168861476913,0.33704661822328236,6
19.023170528421403,0.2686528705870391,6
19.033172195365896,0.22931617806690457,6
19.043173862310386,0.17718941604340946,6
19.053175529254876,0.12442756608414864,6
19.063177196199366,0.10129000370088397,6
19.07317886314386,0.038227528779871886,6
19.08318053008835,0.03656456716109908,6
19.09318219703284,0.024293883271882442,6
19.103183863977332,-0.0007723990040100649,6
19.11318553092182,0.01302257717948755,6
19.12318719786631,0.008833064673065076,6
19.1331888648108,-0.0036320196139304805,6
19.143190531755295,-0.002801352343026201,6
19.153192198699784,-0.02419035363762523,6
19.163193865644274,2.4163311928978096e-05,6
19.173195532588764,-0.010758459533058214,6
19.183197199533257,-0.013569113493359135,6
19.193198866477747,-0.04190200131627046,6
19.203200533422237,-0.06368459006434003,6
19.21320220036673,-0.0920749845599836,6
19.22320386731122,-0.12724227652526993,6
19.23320553425571,-0.16433173416097888,6
19.2432072012002,-0.23532449680093848,6
19.253208868144693,-0.2966558442053162,6
19.263210535089183,-0.3387077356840227,6
19.273212202033672,-0.370616966725374,6
19.283213868978162,-0.46935725090715175,6
19.293215535922656,-0.5107738899377571,6
19.303217202867145,-0.5888093323400729,6
19.313218869811635,-0.6578925787962774,6
19.32322053675613,-0.6887808820777909,6
19.33322220370062,-0.7363230508253953,6
19.343223870645108,-0.7678506957009426,6
19.353225537589598,-0.7706345413760286,6
19.36322720453409,-0.7763470856030974,6
19.37322887147858,-0.7576731554857132,6
19.38323053842307,-0.764488491663444,6
19.39323220536756,-0.7181321373197942,6
19.403233872312054,-0.6736062824531578,6
19.413235539256544,-0.6048715087908785,6
19.423237206201033,-0.5298449801313179,6
19.433238873145523,-0.44588818132608116,6
19.443240540090017,-0.34152757982297693,6
19.453242207034506,-0.24916918285430054,6
19.463243873978996,-0.1351132373405727,6
19.47324554092349,-0.013223174662918566,6
19.48324720786798,0.09333031025668026,6
19.49324887481247,0.22034044280333273,6
19.50325054175696,0.3275973117150682,6
19.513252208701452,0.4043229252976692,6
19.523253875645942,0.5092005036793912,6
19.53325554259043,0.573126400703406,6
19.54325720953492,0.6545145883669092,6
19.553258876479415,0.7279577359166176,6
19.563260543423905,0.7296365708308094,6
19.573262210368394,0.7684124114673934,6
19.583263877312888,0.7832958605136353,6
19.593265544257378,0.790799853700159,6
19.603267211201867,0.7704370822994704,6
19.613268878146357,0.7545274179459033,6
19.62327054509085,0.7073804881247412,6
19.63327221203534,0.6290704595028412,6
19.64327387897983,0.586799994176134,6
19.65327554592432,0.5376960592753351,6
19.663277212868813,0.47740104787359977,6
19.673278879813303,0.4207783272359272,6
19.683280546757793,0.3448144874933737,6
19.693282213702286,0.28315016370625723,6
19.703283880646776,0.2332918344042493,6
19.713285547591266,0.17766118859241126,6
19.723287214535755,0.13888428291987912,6
19.73328888148025,0.10015728431967762,6
19.74329054842474,0.06988316328536695,6
19.75329221536923,0.03597205376820737,6
19.763293882313718,0.044602008242634064,6
19.77329554925821,0.01139857016415934,6
19.7832972162027,-0.0064928240440261555,6
19.79329888314719,0.010355127343379426,6
19.803300550091684,-0.0032463114795204515,6
19.813302217036174,0.006917181730243607,6
19.823303883980664,0.0045821736128246904,6
19.833305550925154,0.010652018627111721,6
19.843307217869647,-0.007877417310021348,6
19.853308884814137,-0.018948691899823816,6
19.863310551758627,-0.015270979618327057,6
19.873312218703116,-0.057899180376925936,6
19.88331388564761,-0.0942515319123976,6
19.8933155525921,-0.12597166355483916,6
19.90331721953659,-0.1705140623424152,6
19.913318886481083,-0.20304140925173672,6
19.923320553425572,-0.25570817644299554,6
19.933322220370062,-0.33431938225503305,6
19.943323887314552,-0.38252350972702515,6
19.953325554259045,-0.45359455901248785,6
19.963327221203535,-0.5198461166827506,6
19.973328888148025,-0.5621475016582888,6
19.983330555092515,-0.6292199119568126,6
19.993332222037008,-0.6779900283529394,6
20.003333888981498,-0.7319546392696991,6
20.013335555925988,-0.7346847630611921,6
20.02333722287048,-0.7724180881154773,6
20.03333888981497,-0.7835076476729999,6
20.04334055675946,-0.7747387779041016,6
20.05334222370395,-0.7595882431405502,6
20.063343890648444,-0.7114754924184031,6
20.073345557592933,-0.6784116099039147,6
20.083347224537423,-0.5939135796705187,6
20.093348891481913,-0.538233746126129,6
20.103350558426406,-0.4363390759431257,6
20.113352225370896,-0.33973357399860593,6
20.123353892315386,-0.23769386823616415,6
20.133355559259876,-0.13201290976397967,6
20.14335722620437,-0.01675776045582667,6
20.15335889314886,0.1039147294933015,6
20.16336056009335,0.21365306458071287,6
20.173362227037842,0.31156333082316934,6
20.18336389398233,0.4170693670964786,6
20.19336556092682,0.49440412986206217,6
20.20336722787131,0.5561994313618582,6
20.213368894815805,0.6419553042479846,6
20.223370561760294,0.6843574679364645,6
20.233372228704784,0.7355932390186071,6
20.243373895649274,0.75425409528258,6
20.253375562593767,0.7816387749710899,6
20.263377229538257,0.7674148938017323,6
20.273378896482747,0.7640087102900388,6
20.28338056342724,0.748657136703853,6
20.29338223037173,0.7018466656083718,6
20.30338389731622,0.6716067327411139,6
20.31338556426071,0.6175604137269871,6
20.323387231205203,0.5392583850346753,6
20.333388898149693,0.490375599246096,6
20.343390565094182,0.4060554153434705,6
20.353392232038672,0.3495409492452137,6
20.363393898983166,0.31356941728491666,6
20.373395565927655,0.23462374013066908,6
20.383397232872145,0.17071396675855202,6
20.39339889981664,0.12922398601606752,6
20.40340056676113,0.08608920651774823,6
20.413402233705618,0.06761390058088984,6
20.423403900650108,0.02981095670743205,6
20.4334055675946,0.03353989833259206,6
20.44340723453909,0.01778976779970535,6
20.45340890148358,0.004835918417186726,6
20.46341056842807,0.004001405525962643,6
20.473412235372564,0.009826357594210184,6
20.483413902317054,-0.0036917840115390068,6
20.493415569261543,0.004677910256248536,6
20.503417236206037,0.0031768680744923457,6
20.513418903150527,-0.0047779771530858575,6
20.523420570095016,-0.03200543716912798,6
20.533422237039506,-0.01955058216785174,6
20.543423903984,-0.06430750129624638,6
20.55342557092849,-0.08707785750839399,6
20.56342723787298,-0.12352277118524124,6
20.57342890481747,-0.16978510219935838,6
20.583430571761962,-0.21628490648788629,6
20.593432238706452,-0.2556494547592434,6
20.60343390565094,-0.3117550703307137,6
20.613435572595435,-0.37168409087040716,6
20.623437239539925,-0.41473168724689147,6
20.633438906484415,-0.49071193035252536,6
20.643440573428904,-0.5586230110523039,6
20.653442240373398,-0.6157980835539214,6
20.663443907317887,-0.6810104044073356,6
20.673445574262377,-0.716730033881342,6
20.683447241206867,-0.7631295939017835,6
20.69344890815136,-0.7704160552629274,6
20.70345057509585,-0.7845402287933066,6
20.71345224204034,-0.771458844105113,6
20.723453908984833,-0.7490237398897098,6
20.733455575929323,-0.717974909800436,6
20.743457242873813,-0.6925382503725155,6
20.753458909818303,-0.6087154846027686,6
20.763460576762796,-0.5513411463119902,6
20.773462243707286,-0.45666400365813964,6
20.783463910651776,-0.35790729692490536,6
20.793465577596265,-0.2632897866506028,6
20.80346724454076,-0.15289792325888402,6
20.81346891148525,-0.05617430922268341,6
20.82347057842974,0.05579529143649923,6
20.83347224537423,0.16110555745255056,6
20.84347391231872,0.29647810901147714,6
20.85347557926321,0.3911914026972337,6
20.8634772462077,0.5073286137051274,6
20.873478913152194,0.579629310032546,6
20.883480580096684,0.6272553963931368,6
20.893482247041174,0.6859148833604855,6
20.903483913985664,0.7318257686508671,6
20.913485580930157,0.7768041916199183,6
20.923487247874647,0.768579235641555,6
20.933488914819137,0.784888781191827,6
20.943490581763626,0.7776024146115179,6
20.95349224870812,0.7539720471531545,6
20.96349391565261,0.7251490423071497,6
20.9734955825971,0.660011974197458,6
20.983497249541593,0.6284190987475581,6
20.993498916486082,0.547594334797297,6
21.003500583430572,0.4880033271860591,6
21.013502250375062,0.41491413425085555,6
21.023503917319555,0.3685872335447637,6
21.033505584264045,0.31209544488103674,6
21.043507251208535,0.22806385405262355,6
21.053508918153025,0.1880949154612167,6
21.063510585097518,0.14500078406205577,6
21.073512252042008,0.11395501368866037,6
21.083513918986498,0.0701219866578109,6
21.09351558593099,0.04197217445151559,6
21.10351725287548,0.0153616013762517,6
21.11351891981997,0.01364093776470665,6
21.12352058676446,0.0009710817037117993,6
21.133522253708954,0.012870329770184298,6
21.143523920653443,-0.005301835692800894,6
21.153525587597933,0.004670229459010365,6
21.163527254542423,0.010075762885316822,6
21.173528921486916,-0.0031121257808144256,6
21.183530588431406,-0.023312009394020585,6
21.193532255375896,-0.0018251503476959773,6
21.20353392232039,-0.034260349285309105,6
21.21353558926488,-0.04767118480117366,6
21.22353725620937,-0.0637272460517893,6
21.23353892315386,-0.122680336718146,6
21.243540590098352,-0.16374620395219366,6
21.25354225704284,-0.1954875103286983,6
21.26354392398733,-0.2300042247910068,6
21.27354559093182,-0.31312982321808397,6
21.283547257876315,-0.3633289555681056,6
21.293548924820804,-0.4369672663606419,6
21.303550591765294,-0.5113193834188532,6
21.313552258709787,-0.5536179127591564,6
21.323553925654277,-0.6242499856078403,6
21.333555592598767,-0.6539823413838803,6
21.343557259543257,-0.7053370325932092,6
21.35355892648775,-0.7544281921665371,6
21.36356059343224,-0.7625203738250603,6
21.37356226037673,-0.7755316501537471,6
21.38356392732122,-0.7785010995600753,6
21.393565594265713,-0.7717975874563742,6
21.403567261210203,-0.7233085256467952,6
21.413568928154692,-0.6741454325723518,6
21.423570595099186,-0.6245520711689545,6
21.433572262043675,-0.5390464704794822,6
21.443573928988165,-0.4734576299368987,6
21.453575595932655,-0.3786780880924354,6
21.46357726287715,-0.27712887533936675,6
21.473578929821638,-0.1651508684730365,6
21.483580596766128,-0.04833995307900654,6
21.493582263710618,0.05293335793972548,6
21.50358393065511,0.16641265183400497,6
21.5135855975996,0.25942042935649334,6
21.52358726454409,0.36741472353329774,6
21.533588931488584,0.46228013904728565,6
21.543590598433074,0.5629455182576565,6
21.553592265377564,0.6306315220429387,6
21.563593932322053,0.680940253044765,6
21.573595599266547,0.7291098447510379,6
21.583597266211036,0.7515764229461249,6
21.593598933155526,0.7841086558068077,6
21.603600600100016,0.7725565922440676,6
21.61360226704451,0.7736275769236688,6
21.623603933989,0.7544065358529015,6
21.63360560093349,0.6985904650605914,6
21.64360726787798,0.6584575265343577,6
21.653608934822472,0.6230105938478594,6
21.663610601766962,0.5445863382404046,6
21.67361226871145,0.504514244014617,6
21.683613935655945,0.42096343419829246,6
21.693615602600435,0.3778578859685071,6
21.703617269544925,0.3133520261031535,6
21.713618936489414,0.25957159528294255,6
21.723620603433908,0.210546734420352,6
21.733622270378397,0.1552075463307866,6
21.743623937322887,0.09970919038258076,6
21.753625604267377,0.06432669717312811,6
21.76362727121187,0.04657594952830014,6
21.77362893815636,0.01963715233827136,6
21.78363060510085,0.022023844750390528,6
21.793632272045343,0.0020724869961407447,6
21.803633938989833,0.003161909900511583,6
21.813635605934323,0.01059479508816992,6
21.823637272878813,-0.0010218115160508837,6
21.833638939823306,-0.0017645870740356487,6
21.843640606767796,-0.0019589247562623053,6
21.853642273712286,0.008375757994023415,6
21.863643940656775,-0.027098793989083915,6
21.87364560760127,-0.02986186871483753,6
21.88364727454576,-0.060974100023471256,6
21.893648941490248,-0.09042036507913234,6
21.90365060843474,-0.11778425061919648,6
21.91365227537923,-0.15016865470363056,6
21.92365394232372,-0.19545153298760928,6
21.93365560926821,-0.24197696704049523,6
21.943657276212704,-0.29693401617602305,6
21.953658943157194,-0.3555371498329704,6
21.963660610101684,-0.44151191032532994,6
21.973662277046174,-0.48928192951498367,6
21.983663943990667,-0.5490642082406677,6
21.993665610935157,-0.6079634286055277,6
22.003667277879646,-0.6485544697624703,6
22.01366894482414,-0.7048170825631,6
22.02367061176863,-0.7354209620342551,6
22.03367227871312,-0.7587550541689214,6
22.04367394565761,-0.7782983267510448,6
22.053675612602103,-0.7769174872160076,6
22.063677279546592,-0.7641562763935266,6
22.073678946491082,-0.7381111383055613,6
22.083680613435572,-0.6757795012638579,6
22.093682280380065,-0.6283750993332327,6
22.103683947324555,-0.5667727828538915,6
22.113685614269045,-0.4849151881501745,6
22.123687281213538,-0.3908704120246315,6
22.133688948158028,-0.28721774800296357,6
22.143690615102518,-0.18459193405510985,6
22.153692282047007,-0.06934368686239287,6
22.1636939489915,0.0450959698498128,6
22.17369561593599,0.15427631783426046,6
22.18369728288048,0.2630049059127991,6
22.19369894982497,0.3660715974151195,6
22.203700616769463,0.44928414365349506,6
22.213702283713953,0.5542956997169175,6
22.223703950658443,0.6168552510095938,6
22.233705617602936,0.6653091346678487,6
22.243707284547426,0.7210013801077478,6
22.253708951491916,0.7506647251280827,6
22.263710618436406,0.7722982264500371,6
22.2737122853809,0.7717201126351895,6
22.28371395232539,0.7847803283639497,6
22.29371561926988,0.7640687991570188,6
22.30371728621437,0.7175094858106926,6
22.313718953158862,0.6742683971427111,6
22.32372062010335,0.6222167860224683,6
22.33372228704784,0.5698640306156012,6
22.34372395399233,0.5007726864759074,6
22.353725620936824,0.4611387011891921,6
22.363727287881314,0.3694031893197236,6
22.373728954825804,0.3146711016212393,6
22.383730621770297,0.2671947936778008,6
22.393732288714787,0.20962640933728716,6
22.403733955659277,0.15486995687909208,6
22.413735622603767,0.10665369706808109,6
22.42373728954826,0.08285348638214407,6
22.43373895649275,0.04921240274052792,6
22.44374062343724,0.039410344594561476,6
22.45374229038173,0.015164936528166691,6
22.463743957326223,0.015530962164589577,6
22.473745624270713,-0.011775702867752267,6
22.483747291215202,-0.003942999042773269,6
22.493748958159696,0.0013557511007620834,6
22.503750625104185,-0.002876731791130798,6
22.513752292048675,-0.0007680298287079347,6
22.523753958993165,-0.0019253008497338658,6
22.53375562593766,-0.012213975953641683,6
22.543757292882148,-0.021305333732744583,6
22.553758959826638,-0.05220846089442424,6
22.563760626771128,-0.0698747448483883,6
22.57376229371562,-0.1054842709738901,6
22.58376396066011,-0.13788121717057739,6
22.5937656276046,-0.18410069894981296,6
22.603767294549094,-0.2424491610993391,6
22.613768961493584,-0.30830778139184584,6
22.623770628438074,-0.362340760969086,6
22.633772295382563,-0.39743301890766597,6
22.643773962327057,-0.4802984839903482,6
22.653775629271546,-0.5238370041765915,6
22.663777296216036,-0.6074719719278993,6
22.673778963160526,-0.6568888243960888,6
22.68378063010502,-0.6838495069396022,6
22.69378229704951,-0.7317675023540958,6
22.703783963994,-0.7521909689798281,6
22.713785630938492,-0.7802606851942537,6
22.723787297882982,-0.7667498958504694,6
22.733788964827472,-0.7795507976115141,6
22.74379063177196,-0.7379555643801958,6
22.753792298716455,-0.6994428777097486,6
22.763793965660945,-0.6407447580515296,6
22.773795632605434,-0.5717480987174993,6
22.783797299549924,-0.48819787320896346,6
22.793798966494418,-0.3969761343797988,6
22.803800633438907,-0.2935573889787842,6
22.813802300383397,-0.20459368577944498,6
22.82380396732789,-0.06791640378612127,6
22.83380563427238,0.03213937488760091,6
22.84380730121687,0.1303984462644792,6
22.85380896816136,0.24566119963226063,6
22.863810635105853,0.3499355292774113,6
22.873812302050343,0.43609037881573687,6
22.883813968994833,0.5306113452809577,6
22.893815635939323,0.6096884717763411,6
22.903817302883816,0.6737754605726023,6
22.913818969828306,0.7363819413933365,6
22.923820636772795,0.7418221770403703,6
22.93382230371729,0.7774909367408491,6
22.94382397066178,0.7785391898306211,6
22.95382563760627,0.7688816337544594,6
22.963827304550758,0.7528726353003891,6
22.97382897149525,0.721970294643069,6
22.98383063843974,0.6735594205318953,6
22.99383230538423,0.6239503013181302,6
23.00383397232872,0.5858197310481869,6
23.013835639273214,0.5144519982963259,6
23.023837306217704,0.44660398011139346,6
23.033838973162194,0.38676617266188634,6
23.043840640106687,0.3509224222114883,6
23.053842307051177,0.2680795845637229,6
23.063843973995667,0.21180063782760997,6
23.073845640940156,0.16063095850444228,6
23.08384730788465,0.13360582900081375,6
23.09384897482914,0.06627219373095602,6
23.10385064177363,0.0801638598365513,6
23.11385230871812,0.04331022223387608,6
23.123853975662612,0.041958488348209116,6
23.133855642607102,0.033122202019148214,6
23.143857309551592,0.006684595480351269,6
23.153858976496082,-0.00558507998606737,6
23.163860643440575,0.003752074649939856,6
23.173862310385065,0.004275189718807348,6
23.183863977329555,-0.004889836271951853,6
23.193865644274048,-0.012485641890733467,6
23.203867311218538,-0.008311915982493878,6
23.213868978163028,-0.025601733017783953,6
23.223870645107517,-0.059224927957757315,6
23.23387231205201,-0.05378542875716632,6
23.2438739789965,-0.11738834621700389,6
23.25387564594099,-0.13662736496732675,6
23.26387731288548,-0.16312938418658648,6
23.273878979829973,-0.25373041464885315,6
23.283880646774463,-0.2726651353745598,6
23.293882313718953,-0.34448415926071924,6
23.303883980663446,-0.39740651360635676,6
23.313885647607936,-0.4748654121284296,6
23.323887314552426,-0.5354462017054574,6
23.333888981496916,-0.5804000142051704,6
23.34389064844141,-0.6651589913816904,6
23.3538923153859,-0.709285330825367,6
23.36389398233039,-0.7316853365121612,6
23.37389564927488,-0.7584283851638111,6
23.38389731621937,-0.7791114112224691,6
23.39389898316386,-0.7753521649058379,6
23.40390065010835,-0.7575347759968944,6
23.413902317052845,-0.7462316291092083,6
23.423903983997334,-0.7018654762087927,6
23.433905650941824,-0.6599980873406681,6
23.443907317886314,-0.5782359252495354,6
23.453908984830807,-0.5082555129314735,6
23.463910651775297,-0.4134455594939501,6
23.473912318719787,-0.3137183757362298,6
23.483913985664277,-0.229572010142015,6
23.49391565260877,-0.10433059035643444,6
23.50391731955326,0.0036256651727266174,6
23.51391898649775,0.11774226536446973,6
23.523920653442243,0.20920868482126298,6
23.533922320386733,0.32818757696093925,6
23.543923987331222,0.4294581456359398,6
23.553925654275712,0.5035053748202113,6
23.563927321220206,0.5907394561850864,6
23.573928988164695,0.6538494093842975,6
23.583930655109185,0.6964582045667391,6
23.593932322053675,0.744221470722351,6
23.60393398899817,0.763768559934413,6
23.613935655942658,0.7692765110076865,6
23.623937322887148,0.756306910276093,6
23.63393898983164,0.7507545541992442,6
23.64394065677613,0.727590922196672,6
23.65394232372062,0.696298303098274,6
23.66394399066511,0.6294500071246977,6
23.673945657609604,0.5921069786684994,6
23.683947324554094,0.5119401020612047,6
23.693948991498583,0.45699298158633855,6
23.703950658443073,0.37761435754534195,6
23.713952325387567,0.3212444764737826,6
23.723953992332056,0.2791856385830593,6
23.733955659276546,0.22373171803780367,6
23.74395732622104,0.19612541035611697,6
23.75395899316553,0.13619445729976762,6
23.76396066011002,0.09762655032613089,6
23.77396232705451,0.06147815838980753,6
23.783963993999002,0.011613787216854136,6
23.793965660943492,0.03171323773047124,6
23.80396732788798,0.012947847849139167,6
23.81396899483247,0.008022095914871113,6
23.823970661776965,0.019488697202291707,6
23.833972328721455,0.013064913579969853,6
23.843973995665944,0.01106030734928182,6
23.853975662610434,-0.019827277021557087,6
23.863977329554928,-0.0023785742422430165,6
23.873978996499417,-0.01059523448833747,6
23.883980663443907,-0.015752925001543593,6
23.8939823303884,-0.0487758991145682,6
23.90398399733289,-0.05348902736634359,6
23.91398566427738,-0.08978295374082629,6
23.92398733122187,-0.13887578329649958,6
23.933988998166363,-0.17722213223968,6
23.943990665110853,-0.20957415489070685,6
23.953992332055343,-0.26513795323012807,6
23.963993998999833,-0.32974072565427404,6
23.973995665944326,-0.4061685153046982,6
23.983997332888816,-0.4509206410477393,6
23.993998999833305,-0.5043208700338165,6
24.0040006667778,-0.5630958198845084,6
24.01400233372229,-0.6344012187933595,6
24.02400400066678,-0.6891388420388608,6
24.034005667611268,-0.7164277280314875,6
24.04400733455576,-0.7681648345724443,6
24.05400900150025,-0.7635057388318481,6
24.06401066844474,-0.7768313623863106,6
24.07401233538923,-0.762320901339738,6
24.084014002333724,-0.7508394718950158,6
24.094015669278214,-0.7232339158569816,6
24.104017336222704,-0.6558728326662472,6
24.114019003167197,-0.5914118610884348,6
24.124020670111687,-0.5185654207789622,6
24.134022337056177,-0.43260908999167996,6
24.144024004000666,-0.34348396462781355,6
24.15402567094516,-0.2181725398524697,6
24.16402733788965,-0.11657171397891813,6
24.17402900483414,-0.024586575691554764,6
24.18403067177863,0.10957999577901381,6
24.194032338723122,0.2042562984568255,6
24.204034005667612,0.3187408426882939,6
24.214035672612102,0.4091591999171444,6
24.224037339556595,0.5136790496786899,6
24.234039006501085,0.5921554321330581,6
24.244040673445575,0.6463695085768639,6
24.254042340390065,0.7177071463304574,6
24.264044007334558,0.7432982533631262,6
24.274045674279048,0.773919120993017,6
24.284047341223538,0.7808618432728132,6
24.294049008168027,0.7785933919489472,6
24.30405067511252,0.7692524224633449,6
24.31405234205701,0.7280731022463094,6
24.3240540090015,0.6831432798940982,6
24.334055675945994,0.6464100788527585,6
24.344057342890483,0.6072701847123169,6
24.354059009834973,0.5301993930735893,6
24.364060676779463,0.4669473647977216,6
24.374062343723956,0.4169854973931972,6
24.384064010668446,0.34718992788014597,6
24.394065677612936,0.28491373037775847,6
24.404067344557426,0.22718951423192288,6
24.41406901150192,0.17152427015293367,6
24.42407067844641,0.12002032795020848,6
24.4340723453909,0.10823523091425169,6
24.444074012335392,0.06192146747691928,6
24.45407567927988,0.04303787086452856,6
24.46407734622437,0.021164759551038772,6
24.47407901316886,0.0018601130432984152,6
24.484080680113355,0.004855481719314838,6
24.494082347057844,0.011917839691188077,6
24.504084014002334,0.0068702016699363645,6
24.514085680946824,0.013217117268063489,6
24.524087347891317,0.018881153473696066,6
24.534089014835807,-0.007138159770258306,6
24.544090681780297,-0.018235974473566917,6
24.554092348724787,-0.026945069688455944,6
24.56409401566928,-0.03315566551163676,6
24.57409568261377,-0.04770869798300684,6
24.58409734955826,-0.09730777936035118,6
24.594099016502753,-0.1288031966657193,6
24.604100683447243,-0.17075000195871498,6
24.614102350391732,-0.21731085112811016,6
24.624104017336222,-0.25581361545136483,6
24.634105684280716,-0.31046398590373214,6
24.644107351225205,-0.38470195619828607,6
24.654109018169695,-0.4466472299619735,6
24.664110685114185,-0.5074618138975887,6
24.67411235205868,-0.5933010830695735,6
24.684114019003168,-0.6192311720161991,6
24.694115685947658,-0.6772344564590999,6
24.70411735289215,-0.7108185447129731,6
24.71411901983664,-0.7650756769195153,6
24.72412068678113,-0.7685631065190537,6
24.73412235372562,-0.7933505564920112,6
24.744124020670114,-0.7918368251338963,6
24.754125687614604,-0.7408163830240063,6
24.764127354559093,-0.7077844033237481,6
24.774129021503583,-0.6742580691413811,6
24.784130688448077,-0.5929859015214869,6
24.794132355392566,-0.5292572750632263,6
24.804134022337056,-0.4514325762256693,6
24.81413568928155,-0.36014145284327426,6
24.82413735622604,-0.2438965033075404,6
24.83413902317053,-0.14018745273326097,6
24.84414069011502,-0.03282457185091796,6
24.854142357059512,0.10961881340230441,6
24.864144024004002,0.1897066984086373,6
24.87414569094849,0.30504063880194643,6
24.88414735789298,0.3994943729431174,6
24.894149024837475,0.48515862731225506,6
24.904150691781965,0.5626164883614466,6
24.914152358726454,0.6367192116813308,6
24.924154025670948,0.7193043782638047,6
24.934155692615438,0.7125560357405607,6
24.944157359559927,0.7502558520718668,6
24.954159026504417,0.7848138468225963,6
24.96416069344891,0.774856894285073,6
24.9741623603934,0.7471062280801986,6
24.98416402733789,0.7267514311427609,6
24.99416569428238,0.7102576712060882,6
25.004167361226873,0.6569159851177897,6
25.014169028171363,0.6042441107024469,6
25.024170695115853,0.5476574691108284,6
25.034172362060346,0.4823692661666473,6
25.044174029004836,0.41848279175618136,6
25.054175695949326,0.3395807250639926,6
25.064177362893815,0.2957880970962293,6
25.07417902983831,0.2460323088882958,6
25.0841806967828,0.18140055833484736,6
25.09418236372729,0.13416646266184518,6
25.104184030671778,0.11224975153775157,6
25.11418569761627,0.06273389977092263,6
25.12418736456076,0.027674949510265487,6
25.13418903150525,0.0073231907143855406,6
25.144190698449744,0.012825637167708586,6
25.154192365394234,-0.00023659602771071864,6
25.164194032338724,0.009227122331188031,6
25.174195699283214,-0.018629171484779307,6
25.184197366227707,0.0033827638579132235,6
25.194199033172197,-0.013847499724015971,6
25.204200700116687,-0.0018875857370504827,6
25.214202367061176,-0.02071200777191356,6
25.22420403400567,-0.01974266785314072,6
25.23420570095016,-0.03229649575948563,6
25.24420736789465,-0.038417173329917786,6
25.25420903483914,-0.08557721416746804,6
25.264210701783632,-0.10911741183574274,6
25.274212368728122,-0.18593770138196164,6
25.284214035672612,-0.21063480393629874,6
25.294215702617105,-0.2567991688313373,6
25.304217369561595,-0.3284930639635265,6
25.314219036506085,-0.38829333090224555,6
25.324220703450575,-0.42865083144462307,6
25.334222370395068,-0.5137549742669918,6
25.344224037339558,-0.5564355470803084,6
25.354225704284048,-0.6297116870966138,6
25.364227371228537,-0.6774132722678559,6
25.37422903817303,-0.7315349804004003,6
25.38423070511752,-0.73509562998525,6
25.39423237206201,-0.7715377845581979,6
25.404234039006504,-0.7749129863240698,6
25.414235705950993,-0.7834536733947048,6
25.424237372895483,-0.7469245147601253,6
25.434239039839973,-0.7255391655767492,6
25.444240706784466,-0.6664511155265319,6
25.454242373728956,-0.615261327646372,6
25.464244040673446,-0.5466386870883561,6
25.474245707617936,-0.45892438994931406,6
25.48424737456243,-0.36294937133048033,6
25.49424904150692,-0.272981091761682,6
25.50425070845141,-0.15253511588498775,6
25.514252375395902,-0.033769417300632,6
25.52425404234039,0.0950600612126553,6
25.53425570928488,0.1769145652449868,6
25.54425737622937,0.2653826835790307,6
25.554259043173865,0.3775404741322834,6
25.564260710118354,0.45593135209226915,6
25.574262377062844,0.5496340957238367,6
25.584264044007334,0.6369363671375348,6
25.594265710951827,0.6855335923369037,6
25.604267377896317,0.7321261798508393,6
25.614269044840807,0.7574688597245883,6
25.6242707117853,0.7879281908961504,6
25.63427237872979,0.7726565624495606,6
25.64427404567428,0.7870316245043263,6
25.65427571261877,0.7448812470174208,6
25.664277379563263,0.6875206255069316,6
25.674279046507753,0.6363091581319414,6
25.684280713452242,0.608646931049298,6
25.694282380396732,0.5465508245060611,6
25.704284047341226,0.4859869134431431,6
25.714285714285715,0.42226481663119275,6
25.724287381230205,0.35567017568637327,6
25.7342890481747,0.28658822533987904,6
25.744290715119188,0.25082305784222114,6
25.754292382063678,0.17924787903091766,6
25.764294049008168,0.15535022075034993,6
25.77429571595266,0.11688025919570276,6
25.78429738289715,0.06393976657182783,6
25.79429904984164,0.02709183811077662,6
25.80430071678613,0.038612802051605145,6
25.814302383730624,0.015586305729503792,6
25.824304050675114,0.0032718829445808353,6
25.834305717619603,-0.0006229439164346629,6
25.844307384564097,-0.027110359174192508,6
25.854309051508586,-0.0012697572380881957,6
25.864310718453076,0.011132379868794643,6
25.874312385397566,-0.008062003594883066,6
25.88431405234206,0.005373532225651087,6
25.89431571928655,-0.02044334301097862,6
25.90431738623104,-0.008706208528789883,6
25.91431905317553,-0.0489868838578013,6
25.924320720120022,-0.08206878573220809,6
25.934322387064512,-0.10154887969513887,6
25.944324054009,-0.15192185560898236,6
25.954325720953495,-0.21747078597957106,6
25.964327387897985,-0.23994663819741652,6
25.974329054842475,-0.30760338468491827,6
25.984330721786964,-0.38264022746904575,6
25.994332388731458,-0.4336934696877297,6
26.004334055675947,-0.5085174422884566,6
26.014335722620437,-0.5527943716797747,6
26.024337389564927,-0.6241198301112239,6
26.03433905650942,-0.6637624489781946,6
26.04434072345391,-0.7193893565770157,6
26.0543423903984,-0.7511976073355673,6
26.06434405734289,-0.7644160653769039,6
26.074345724287383,-0.7578297558339073,6
26.084347391231873,-0.7697043259090245,6
26.094349058176363,-0.773808618850291,6
26.104350725120856,-0.7264029534685013,6
26.114352392065346,-0.6844325135789254,6
26.124354059009836,-0.6285664159599987,6
26.134355725954325,-0.5356089632017076,6
26.14435739289882,-0.46770612512814835,6
26.15435905984331,-0.3837425894324649,6
26.1643607267878,-0.27255648814964323,6
26.174362393732288,-0.16806160040848622,6
26.18436406067678,-0.05629112928871392,6
26.19436572762127,0.071231439930434,6
26.20436739456576,0.19231853069513583,6
26.214369061510254,0.26000324578924394,6
26.224370728454744,0.3631144650508741,6
26.234372395399234,0.48441265939934675,6
26.244374062343724,0.5499357687360038,6
26.254375729288217,0.6273336870504473,6
26.264377396232707,0.674509380959129,6
26.274379063177197,0.7198794616388658,6
26.284380730121686,0.7670276047368182,6
26.29438239706618,0.7912748280925462,6
26.30438406401067,0.7712589586872495,6
26.31438573095516,0.7766228823469121,6
26.324387397899653,0.7354164889862717,6
26.334389064844142,0.7117947178155881,6
26.344390731788632,0.6834128236770701,6
26.354392398733122,0.6087529389403772,6
26.364394065677615,0.5440275967544654,6
26.374395732622105,0.5011506394364318,6
26.384397399566595,0.44272290056219726,6
26.394399066511085,0.3675157380312257,6
26.404400733455578,0.30824300554205464,6
26.414402400400068,0.2614859773526504,6
26.424404067344557,0.20383313991377663,6
26.43440573428905,0.16190074511002164,6
26.44440740123354,0.11459241372124118,6
26.45440906817803,0.08908397321339001,6
26.46441073512252,0.059399151797516425,6
26.474412402067014,0.0209673173593478,6
26.484414069011503,0.03071694091298591,6
26.494415735955993,-0.0039015202808094437,6
26.504417402900483,0.009244130972693984,6
26.514419069844976,-0.011867037086990337,6
26.524420736789466,0.019759691811511527,6
26.534422403733956,-0.016055280119136744,6
26.54442407067845,0.00022511643713767288,6
26.55442573762294,0.000768869436633928,6
26.56442740456743,-0.03010769572888646,6
26.57442907151192,-0.04209914151307774,6
26.584430738456412,-0.05484720980509286,6
26.5944324054009,-0.07872737621597528,6
26.60443407234539,-0.10490655869076002,6
26.61443573928988,-0.14325948606641825,6
26.624437406234374,-0.20107227203668965,6
26.634439073178864,-0.25199857761026373,6
26.644440740123354,-0.3019085693175201,6
26.654442407067847,-0.3689959189454849,6
26.664444074012337,-0.43866207876755514,6
26.674445740956827,-0.4914122299305352,6
26.684447407901317,-0.5554355296169752,6
26.69444907484581,-0.624301715820484,6
26.7044507417903,-0.6500712815639819,6
26.71445240873479,-0.7070900767712934,6
26.72445407567928,-0.7335896949382003,6
26.734455742623773,-0.767566859329402,6
26.744457409568263,-0.7644533989879636,6
26.754459076512752,-0.7664751291552919,6
26.764460743457242,-0.7552687044091403,6
26.774462410401735,-0.7327770271058072,6
26.784464077346225,-0.6892753476169822,6
26.794465744290715,-0.6337596785276782,6
26.80446741123521,-0.570979198806312,6
26.814469078179698,-0.48995980582081333,6
26.824470745124188,-0.37453728546219356,6
26.834472412068678,-0.28354114607053255,6
26.84447407901317,-0.18684922722405659,6
26.85447574595766,-0.07538004877953981,6
26.86447741290215,0.042673529112235806,6
26.87447907984664,0.16727070482598605,6
26.884480746791134,0.24986867791548198,6
26.894482413735624,0.36831803179510236,6
26.904484080680113,0.45410175048998125,6
26.914485747624607,0.5615122116955473,6
26.924487414569096,0.611319941930109,6
26.934489081513586,0.674605263049036,6
26.944490748458076,0.7291899931293349,6
26.95449241540257,0.7509984220748135,6
26.96449408234706,0.7680806751451674,6
26.97449574929155,0.7608845855483051,6
26.98449741623604,0.7725467559772992,6
26.994499083180532,0.7508370080306663,6
27.004500750125022,0.7067624773473105,6
27.01450241706951,0.6630183620185437,6
27.024504084014005,0.6339905414325367,6
27.034505750958495,0.5573078497130456,6
27.044507417902985,0.4974854269376318,6
27.054509084847474,0.4484554679460876,6
27.064510751791968,0.39021227782074913,6
27.074512418736457,0.33170852188993366,6
27.084514085680947,0.26111903998541713,6
27.094515752625437,0.21857000686435166,6
27.10451741956993,0.17180243057385775,6
27.11451908651442,0.11645898157907066,6
27.12452075345891,0.057439292974669626,6
27.134522420403403,0.06417170635163973,6
27.144524087347893,0.03469476911769601,6
27.154525754292383,0.016051091337802137,6
27.164527421236873,0.008980320182059517,6
27.174529088181366,0.005473753247791717,6
27.184530755125856,0.012969513841707565,6
27.194532422070345,0.0013093248204028005,6
27.204534089014835,0.027644974485422046,6
27.21453575595933,0.007916788673554003,6
27.22453742290382,0.00318142983390139,6
27.234539089848308,-0.020504007009283894,6
27.2445407567928,-0.02990154784701987,6
27.25454242373729,-0.04451104307180547,6
27.26454409068178,-0.06667620251121717,6
27.27454575762627,-0.1154774210897703,6
27.284547424570764,-0.14837493007702668,6
27.294549091515254,-0.18964831240824023,6
27.304550758459744,-0.24354200948102128,6
27.314552425404234,-0.3087069340240223,6
27.324554092348727,-0.34559378500725557,6
27.334555759293217,-0.41230272343095276,6
27.344557426237706,-0.48195637290353704,6
27.3545590931822,-0.5540464457436949,6
27.36456076012669,-0.6019263692563982,6
27.37456242707118,-0.6429528581666824,6
27.38456409401567,-0.7045266998288261,6
27.394565760960162,-0.7472906824019926,6
27.404567427904652,-0.7762335168064612,6
27.414569094849142,-0.7814657666306725,6
27.424570761793632,-0.8000775753197243,6
27.434572428738125,-0.7585425438154717,6
27.444574095682615,-0.7372453578297135,6
27.454575762627105,-0.6960805193002618,6
27.464577429571595,-0.6609960214354842,6
27.474579096516088,-0.552201945429544,6
27.484580763460578,-0.49781479527736144,6
27.494582430405067,-0.3887055225335864,6
27.50458409734956,-0.3077908451791074,6
27.51458576429405,-0.19339844476062854,6
27.52458743123854,-0.07874819679586587,6
27.53458909818303,0.03662076100738383,6
27.544590765127523,0.12065343628520014,6
27.554592432072013,0.24719573460854324,6
27.564594099016503,0.3500064059801445,6
27.574595765960993,0.45029679533196465,6
27.584597432905486,0.548835830509374,6
27.594599099849976,0.6040233360137195,6
27.604600766794466,0.6676766050840388,6
27.61460243373896,0.7173283140826423,6
27.62460410068345,0.7435438581485048,6
27.63460576762794,0.7759579397161758,6
27.64460743457243,0.7785479839605819,6
27.65460910151692,0.7858298574206823,6
27.66461076846141,0.7739615670797594,6
27.6746124354059,0.7319070448704534,6
27.68461410235039,0.678446981001496,6
27.694615769294884,0.6251408530968703,6
27.704617436239374,0.5688888941001693,6
27.714619103183864,0.5088789813144299,6
27.724620770128357,0.4576758202383135,6
27.734622437072847,0.4047940759260785,6
27.744624104017337,0.3156459081076289,6
27.754625770961827,0.2673519540075928,6
27.76462743790632,0.22055096655842263,6
27.77462910485081,0.17925998424464717,6
27.7846307717953,0.12515985036018823,6
27.79463243873979,0.07517069266811804,6
27.804634105684283,0.07441739111298698,6
27.814635772628773,0.04271849174172176,6
27.824637439573262,0.003522962934162599,6
27.834639106517756,0.015236652251183449,6
27.844640773462245,0.01043084042097594,6
27.854642440406735,-0.012320130177389033,6
27.864644107351225,0.012736064796127492,6
27.87464577429572,-0.006048183871843114,6
27.884647441240208,0.005776369414637522,6
27.894649108184698,-0.01582402331969382,6
27.904650775129188,-0.01649676247336078,6
27.91465244207368,-0.02649386040685211,6
27.92465410901817,-0.05001021227771722,6
27.93465577596266,-0.05726165564814113,6
27.944657442907154,-0.09500444695059296,6
27.954659109851644,-0.14347621439394953,6
27.964660776796133,-0.17688462648394437,6
27.974662443740623,-0.22191730356234485,6
27.984664110685117,-0.29275077915213366,6
27.994665777629606,-0.3516587252411475,6
28.004667444574096,-0.42447140262348415,6
28.014669111518586,-0.46554417081225313,6
28.02467077846308,-0.5410588885088002,6
28.03467244540757,-0.6001792199850313,6
28.04467411235206,-0.6440960670650027,6
28.054675779296552,-0.706056983794217,6
28.064677446241042,-0.7207075060158045,6
28.07467911318553,-0.7582867995627172,6
28.08468078013002,-0.7794344427929921,6
28.094682447074515,-0.7753844744582499,6
28.104684114019005,-0.7689215540084321,6
28.114685780963494,-0.7383195473527334,6
28.124687447907984,-0.7134083105037915,6
28.134689114852478,-0.6451261345299472,6
28.144690781796967,-0.5824792093288271,6
28.154692448741457,-0.5038223616206448,6
28.164694115685947,-0.40581904162264226,6
28.17469578263044,-0.31919013083548886,6
28.18469744957493,-0.19665727546555814,6
28.19469911651942,-0.1022713883592056,6
28.204700783463913,0.038530977296893226,6
28.214702450408403,0.11443100898368652,6
28.224704117352893,0.2364973499689797,6
28.234705784297383,0.3281815684454952,6
28.244707451241876,0.44232316746153255,6
28.254709118186366,0.49814046261812817,6
28.264710785130855,0.6011324321651461,6
28.274712452075345,0.6692477092779133,6
28.28471411901984,0.7287856146537256,6
28.29471578596433,0.7514293322935831,6
28.304717452908818,0.7586882013941215,6
28.31471911985331,0.7928282429234956,6
28.3247207867978,0.7867528244806543,6
28.33472245374229,0.7672053161042546,6
28.34472412068678,0.7265344655652819,6
28.354725787631274,0.6860355225497581,6
28.364727454575764,0.6190891829007856,6
28.374729121520254,0.5938038232944985,6
28.384730788464744,0.5256303662574245,6
28.394732455409237,0.453498936344277,6
28.404734122353727,0.3922886783345981,6
28.414735789298216,0.3430088801593882,6
28.42473745624271,0.2685488484119855,6
28.4347391231872,0.20971218203272873,6
28.44474079013169,0.1706394216448235,6
28.45474245707618,0.13552568470273096,6
28.464744124020672,0.10013849625738391,6
28.474745790965162,0.04853637519271568,6
28.484747457909652,0.03169616107503494,6
28.494749124854142,0.019578994988859573,6
28.504750791798635,0.01671690271351187,6
28.514752458743125,-0.008741558093832992,6
28.524754125687615,0.0035772873002636145,6
28.534755792632108,-0.007352546678916057,6
28.544757459576598,0.0005678565051283332,6
28.554759126521088,-0.019686500395616015,6
28.564760793465577,-0.01874758022101184,6
28.57476246041007,-0.024953801529633272,6
28.58476412735456,-0.01957611720284932,6
28.59476579429905,-0.040965188432638286,6
28.60476746124354,-0.07669884504444648,6
28.614769128188033,-0.0924710121930596,6
28.624770795132523,-0.12352693255547684,6
28.634772462077013,-0.17859161861830822,6
28.644774129021506,-0.2138624312087076,6
28.654775795965996,-0.2852975763615784,6
28.664777462910486,-0.3251201081547097,6
28.674779129854976,-0.3998823029790095,6
28.68478079679947,-0.4577462074342073,6
28.69478246374396,-0.5282836086810146,6
28.70478413068845,-0.5983392001321017,6
28.71478579763294,-0.6379062760862617,6
28.72478746457743,-0.6965992133364023,6
28.73478913152192,-0.7011714458353053,6
28.74479079846641,-0.7468493028907208,6
28.754792465410905,-0.7766940738966043,6
28.764794132355394,-0.7602476193399015,6
28.774795799299884,-0.761805889036814,6
28.784797466244374,-0.7560435319309451,6
28.794799133188867,-0.7181901568039198,6
28.804800800133357,-0.6688388427842524,6
28.814802467077847,-0.5851722978541075,6
28.824804134022337,-0.49120167808020143,6
28.83480580096683,-0.4386876313020426,6
28.84480746791132,-0.32532899203343657,6
