time,ppg_signal,subject_id
0.0,-0.024995864218494684,13
0.010001666944490749,0.11704973725277797,13
0.020003333888981498,0.2234046195925888,13
0.030005000833472247,0.3444551814038143,13
0.040006667777962995,0.45643768437788956,13
0.050008334722453744,0.5416187802167337,13
0.06001000166694449,0.6057945237232032,13
0.07001166861143523,0.6802427183337203,13
0.08001333555592599,0.7414913673262192,13
0.09001500250041675,0.7724189288118939,13
0.10001666944490749,0.7704436366790647,13
0.11001833638939823,0.7735658377951199,13
0.12002000333388899,0.7670282397706729,13
0.13002167027837974,0.7347334156508817,13
0.14002333722287047,0.6935159629837446,13
0.15002500416736123,0.6580407562153432,13
0.16002667111185198,0.6000081762328889,13
0.17002833805634274,0.5100608782144032,13
0.1800300050008335,0.45438294218434794,13
0.19003167194532422,0.3749674421255477,13
0.20003333888981498,0.31466542967764094,13
0.21003500583430573,0.2520587144239965,13
0.22003667277879646,0.19036360454928253,13
0.23003833972328722,0.15269474730153673,13
0.24004000666777797,0.10615104465517561,13
0.2500416736122687,0.08737207082492389,13
0.2600433405567595,0.05128565516202825,13
0.2700450075012502,0.01280747379402359,13
0.28004667444574094,0.015651551780046753,13
0.2900483413902317,0.0026062749043425197,13
0.30005000833472245,0.0044919013512173325,13
0.31005167527921323,0.00821427017663697,13
0.32005334222370396,0.005142552158803122,13
0.3300550091681947,-0.0043491832501823015,13
0.3400566761126855,0.0037127282952945234,13
0.3500583430571762,-0.01091230613247289,13
0.360060010001667,-0.015123129333014367,13
0.3700616769461577,-0.04966168030631141,13
0.38006334389064844,-0.08034870518918547,13
0.3900650108351392,-0.12232599611617673,13
0.40006667777962995,-0.13978808223589323,13
0.4100683447241207,-0.20852289701025276,13
0.42007001166861146,-0.2583731495779945,13
0.4300716786131022,-0.31665333160210163,13
0.4400733455575929,-0.40191671149878055,13
0.4500750125020837,-0.4764452241116919,13
0.46007667944657443,-0.5378809017365204,13
0.4700783463910652,-0.5996974377751024,13
0.48008001333555594,-0.6449423085372274,13
0.49008168028004667,-0.6938989905441281,13
0.5000833472245374,-0.7416928896794628,13
0.5100850141690282,-0.7728557395125276,13
0.520086681113519,-0.7666165168819438,13
0.5300883480580096,-0.7791631224769409,13
0.5400900150025004,-0.751292776926763,13
0.5500916819469912,-0.7282634189431838,13
0.5600933488914819,-0.6725879808634087,13
0.5700950158359727,-0.6130959832344718,13
0.5800966827804634,-0.5045991397182998,13
0.5900983497249542,-0.40964799436392574,13
0.6001000166694449,-0.3212095228482644,13
0.6101016836139357,-0.21600729145260128,13
0.6201033505584265,-0.07188463042260168,13
0.6301050175029171,0.03279437651391368,13
0.6401066844474079,0.14999790791053041,13
0.6501083513918987,0.2540414448106493,13
0.6601100183363894,0.3735350221847777,13
0.6701116852808802,0.4720519838308751,13
0.680113352225371,0.5675589540617774,13
0.6901150191698616,0.6477842543631491,13
0.7001166861143524,0.6875806910509273,13
0.7101183530588432,0.7413651097672115,13
0.720120020003334,0.7716935452513412,13
0.7301216869478246,0.7729876012417835,13
0.7401233538923154,0.7761611874447139,13
0.7501250208368062,0.7525476009900988,13
0.7601266877812969,0.7228274722166694,13
0.7701283547257877,0.6660583176781029,13
0.7801300216702785,0.6204648437582104,13
0.7901316886147691,0.5718714584378776,13
0.8001333555592599,0.5038941013038127,13
0.8101350225037507,0.4168901437795166,13
0.8201366894482414,0.38147532827473646,13
0.8301383563927321,0.3060081237110254,13
0.8401400233372229,0.24656046187621614,13
0.8501416902817136,0.18569907535629748,13
0.8601433572262044,0.13850337748262084,13
0.8701450241706952,0.10941790601164345,13
0.8801466911151858,0.037501598390716456,13
0.8901483580596766,0.017268002925139095,13
0.9001500250041674,0.01598159374895866,13
0.9101516919486582,0.01846820210252742,13
0.9201533588931489,0.007620839209341609,13
0.9301550258376396,-0.013541951944979822,13
0.9401566927821304,-0.0049161562447694,13
0.9501583597266211,0.007126770167527552,13
0.9601600266711119,-0.013236030674608608,13
0.9701616936156027,0.0019239123786827343,13
0.9801633605600933,-0.03084443900806425,13
0.9901650275045841,-0.03360316321833025,13
1.0001666944490748,-0.05867143442936055,13
1.0101683613935657,-0.07698355181048999,13
1.0201700283380564,-0.12452570021976048,13
1.030171695282547,-0.1602147884796592,13
1.040173362227038,-0.23640903778145408,13
1.0501750291715286,-0.28938575142790635,13
1.0601766961160193,-0.34669309774780255,13
1.0701783630605102,-0.40489917867803804,13
1.0801800300050008,-0.48233162413554703,13
1.0901816969494915,-0.5456432203652523,13
1.1001833638939824,-0.5956412999364077,13
1.110185030838473,-0.677765168074658,13
1.1201866977829638,-0.7063433154735723,13
1.1301883647274547,-0.7486204711042265,13
1.1401900316719453,-0.7750205068530986,13
1.1501916986164362,-0.7583021310420199,13
1.160193365560927,-0.7577247198279771,13
1.1701950325054176,-0.7583680296837334,13
1.1801966994499085,-0.7059667294546852,13
1.1901983663943991,-0.6404644681016505,13
1.2002000333388898,-0.5845924532399679,13
1.2102017002833807,-0.48810971077043735,13
1.2202033672278714,-0.4108138496970849,13
1.230205034172362,-0.2850888451705613,13
1.240206701116853,-0.160115259989647,13
1.2502083680613436,-0.057394567994725185,13
1.2602100350058343,0.06353728904243072,13
1.2702117019503252,0.18336096698880242,13
1.2802133688948159,0.2941914930111667,13
1.2902150358393065,0.39479808167863734,13
1.3002167027837974,0.4941776091303856,13
1.310218369728288,0.5926921663151743,13
1.3202200366727788,0.6302255878243928,13
1.3302217036172697,0.7248578139917999,13
1.3402233705617603,0.7425591632372073,13
1.350225037506251,0.7681588875975525,13
1.360226704450742,0.7599156149574451,13
1.3702283713952326,0.7655098870680437,13
1.3802300383397232,0.7288525033332287,13
1.3902317052842141,0.72815011777171,13
1.4002333722287048,0.645333422402632,13
1.4102350391731955,0.6092122904422206,13
1.4202367061176864,0.5509182238747157,13
1.430238373062177,0.500891907393835,13
1.440240040006668,0.41863828708970574,13
1.4502417069511586,0.34248087898561097,13
1.4602433738956493,0.2933222635579093,13
1.4702450408401402,0.22670888948926565,13
1.4802467077846309,0.16451942974008057,13
1.4902483747291215,0.13482180046908115,13
1.5002500416736124,0.0935701400082854,13
1.510251708618103,0.04201968545591757,13
1.5202533755625938,0.023152879643699407,13
1.5302550425070847,0.023143637441129808,13
1.5402567094515753,-0.004686815872171585,13
1.550258376396066,0.0005095637790728906,13
1.560260043340557,-0.0038007714215130767,13
1.5702617102850476,-0.0017629975482437504,13
1.5802633772295382,0.005625593857551287,13
1.5902650441740291,-0.009249409808730357,13
1.6002667111185198,-0.016214161745046383,13
1.6102683780630105,-0.019779559678754378,13
1.6202700450075014,-0.03254260768713795,13
1.630271711951992,-0.05221584915283541,13
1.6402733788964827,-0.09588133077033333,13
1.6502750458409736,-0.139400726472696,13
1.6602767127854643,-0.19173656100977066,13
1.670278379729955,-0.23329092537999085,13
1.6802800466744459,-0.2915763060817172,13
1.6902817136189365,-0.37277399614661183,13
1.7002833805634272,-0.4442535195511667,13
1.710285047507918,-0.4964243902086467,13
1.7202867144524088,-0.5649122158004545,13
1.7302883813968994,-0.639872973622674,13
1.7402900483413903,-0.6957310808426735,13
1.750291715285881,-0.711430120201603,13
1.7602933822303717,-0.7710073612495741,13
1.7702950491748626,-0.7751607241713481,13
1.7802967161193533,-0.7930203171743526,13
1.7902983830638441,-0.7722344082952811,13
1.8003000500083348,-0.7331009164608066,13
1.8103017169528255,-0.695184255456488,13
1.8203033838973164,-0.638743124626242,13
1.830305050841807,-0.5562625946472932,13
1.8403067177862977,-0.48151911996435187,13
1.8503083847307886,-0.357300675648798,13
1.8603100516752793,-0.2662515487051537,13
1.87031171861977,-0.15957745039112275,13
1.8803133855642609,-0.042980504670747675,13
1.8903150525087515,0.09312097218707775,13
1.9003167194532422,0.22172490350991914,13
1.910318386397733,0.3218280316189191,13
1.9203200533422238,0.44444068106017415,13
1.9303217202867144,0.5137245183545427,13
1.9403233872312053,0.5905949518928033,13
1.950325054175696,0.6561475413491024,13
1.9603267211201867,0.7014615216749466,13
1.9703283880646776,0.7618496216672364,13
1.9803300550091683,0.7811857878717259,13
1.990331721953659,0.776661737500228,13
2.0003333888981496,0.7513542327739204,13
2.0103350558426407,0.7433972579947277,13
2.0203367227871314,0.7069078307029747,13
2.030338389731622,0.6555328630490672,13
2.0403400566761127,0.607022481534132,13
2.0503417236206034,0.5244161534448727,13
2.060343390565094,0.47414425348687583,13
2.070345057509585,0.4160098627161586,13
2.080346724454076,0.32839266335563894,13
2.0903483913985665,0.2663048198837039,13
2.100350058343057,0.20001589711688886,13
2.110351725287548,0.1538110655187852,13
2.1203533922320386,0.12096562636251507,13
2.1303550591765297,0.08516966551068708,13
2.1403567261210203,0.05054470238427503,13
2.150358393065511,0.03669078621848354,13
2.1603600600100017,0.015093988861690555,13
2.1703617269544924,0.0178098696890839,13
2.180363393898983,-0.00815853536531144,13
2.190365060843474,0.010976431137111982,13
2.200366727787965,-0.0047557462039679275,13
2.2103683947324555,-0.012038328977561548,13
2.220370061676946,-0.007657741017624384,13
2.230371728621437,-0.02776118607579455,13
2.2403733955659275,-0.010300410861675326,13
2.2503750625104186,-0.043902513784604864,13
2.2603767294549093,-0.06885038258411343,13
2.2703783963994,-0.11514741177719577,13
2.2803800633438907,-0.14150246301610422,13
2.2903817302883813,-0.203320306298829,13
2.3003833972328724,-0.25363646719824984,13
2.310385064177363,-0.3139924199534783,13
2.320386731121854,-0.37323546893613235,13
2.3303883980663445,-0.46380174777505845,13
2.340390065010835,-0.519645899782934,13
2.350391731955326,-0.5958054508361338,13
2.360393398899817,-0.6440261850552517,13
2.3703950658443076,-0.6894895825642198,13
2.3803967327887983,-0.7326595949159221,13
2.390398399733289,-0.776925234489282,13
2.4004000666777796,-0.7902282987462527,13
2.4104017336222703,-0.7731753457033851,13
2.4204034005667614,-0.7545367838074937,13
2.430405067511252,-0.7363181289380784,13
2.4404067344557427,-0.6803088497654218,13
2.4504084014002334,-0.6212889643384883,13
2.460410068344724,-0.527236135760738,13
2.4704117352892148,-0.46416273825716453,13
2.480413402233706,-0.34120595740804016,13
2.4904150691781965,-0.24260884922801734,13
2.5004167361226872,-0.11684724432989683,13
2.510418403067178,0.0015307799642816367,13
2.5204200700116686,0.12142476463197904,13
2.5304217369561592,0.23625123246630542,13
2.5404234039006504,0.34976161699523994,13
2.550425070845141,0.44614681202985,13
2.5604267377896317,0.5466088933173218,13
2.5704284047341224,0.6431003512679928,13
2.580430071678613,0.6794060467952252,13
2.590431738623104,0.7290097780883062,13
2.600433405567595,0.7853335213769845,13
2.6104350725120855,0.7739352149803004,13
2.620436739456576,0.7767437920332211,13
2.630438406401067,0.7573367479240901,13
2.6404400733455575,0.7258729129235296,13
2.6504417402900486,0.7031033370842481,13
2.6604434072345393,0.6288161594731083,13
2.67044507417903,0.57597480630565,13
2.6804467411235207,0.508534032679707,13
2.6904484080680113,0.4491732456860775,13
2.700450075012502,0.398995730644124,13
2.710451741956993,0.3234964231005566,13
2.720453408901484,0.24258740866491219,13
2.7304550758459745,0.19146712367555455,13
2.740456742790465,0.16217219707034794,13
2.750458409734956,0.10608908499220585,13
2.7604600766794465,0.07367405105786065,13
2.7704617436239376,0.04372753528231896,13
2.7804634105684283,0.01424179619717656,13
2.790465077512919,0.008798770857426648,13
2.8004667444574096,0.005866412366177379,13
2.8104684114019003,0.020532553328556684,13
2.820470078346391,-0.018212196746248896,13
2.830471745290882,0.017349464719470183,13
2.8404734122353728,-0.010144976709074582,13
2.8504750791798634,-0.019518069215632962,13
2.860476746124354,-0.017832962637115767,13
2.8704784130688448,-0.03153703226814039,13
2.880480080013336,-0.0665690479229226,13
2.8904817469578266,-0.07545664976916712,13
2.9004834139023172,-0.12542445669753954,13
2.910485080846808,-0.15922318954763823,13
2.9204867477912986,-0.21027168507240518,13
2.9304884147357892,-0.25759131567382404,13
2.9404900816802804,-0.31749043986038133,13
2.950491748624771,-0.3992587150722459,13
2.9604934155692617,-0.4653187756462523,13
2.9704950825137524,-0.5331753125184613,13
2.980496749458243,-0.6026130138727602,13
2.9904984164027337,-0.6579874570653201,13
3.000500083347225,-0.6997029448652989,13
3.0105017502917155,-0.747637366406336,13
3.020503417236206,-0.7635323469492541,13
3.030505084180697,-0.7931232469910868,13
3.0405067511251875,-0.7796715883878896,13
3.050508418069678,-0.7478343403238585,13
3.0605100850141693,-0.7237642031290541,13
3.07051175195866,-0.6584353645771172,13
3.0805134189031507,-0.6017925543293393,13
3.0905150858476413,-0.5124972977567381,13
3.100516752792132,-0.4341264686592505,13
3.1105184197366227,-0.31461122554226434,13
3.120520086681114,-0.23205028977471298,13
3.1305217536256045,-0.09889944445348833,13
3.140523420570095,0.02570014948577939,13
3.150525087514586,0.16694949770574166,13
3.1605267544590765,0.2660350246194595,13
3.170528421403567,0.3851936588976482,13
3.1805300883480583,0.4805164335741737,13
3.190531755292549,0.5649857846726837,13
3.2005334222370396,0.6405423394498552,13
3.2105350891815303,0.7089255030519824,13
3.220536756126021,0.7295646311634894,13
3.230538423070512,0.7654261604793552,13
3.2405400900150028,0.7963679520241774,13
3.2505417569594934,0.798428951470724,13
3.260543423903984,0.7603935697925046,13
3.270545090848475,0.7183151850467197,13
3.2805467577929655,0.6670591707620904,13
3.2905484247374566,0.6279814340356542,13
3.3005500916819472,0.5741503543533499,13
3.310551758626438,0.4987550235538707,13
3.3205534255709286,0.4325215903459351,13
3.3305550925154193,0.3697013160682025,13
3.34055675945991,0.2873415487873254,13
3.350558426404401,0.23401965773917086,13
3.3605600933488917,0.1782676986340217,13
3.3705617602933824,0.13366478542295812,13
3.380563427237873,0.09062848120751892,13
3.3905650941823637,0.05189647775486791,13
3.4005667611268544,0.02370754360706142,13
3.4105684280713455,0.020753923398539435,13
3.420570095015836,0.007564444922961809,13
3.430571761960327,0.007367537676326613,13
3.4405734289048175,-0.00987438846225073,13
3.450575095849308,-0.0008629201868496196,13
3.460576762793799,0.005552477078626598,13
3.47057842973829,-0.022346045394845235,13
3.4805800966827807,-0.025732131849485345,13
3.4905817636272714,-0.035744890533640175,13
3.500583430571762,-0.02364529365748559,13
3.5105850975162527,-0.06454118070502458,13
3.5205867644607434,-0.1022423950375595,13
3.5305884314052345,-0.1255610747559493,13
3.540590098349725,-0.18175519533567355,13
3.550591765294216,-0.22968719984132846,13
3.5605934322387065,-0.2721612872101117,13
3.570595099183197,-0.3467569264150144,13
3.5805967661276883,-0.4241513013015789,13
3.590598433072179,-0.47734809437418757,13
3.6006001000166696,-0.5483901887427731,13
3.6106017669611603,-0.6056805752516882,13
3.620603433905651,-0.6816561125123218,13
3.6306051008501417,-0.7021732540646011,13
3.6406067677946328,-0.7549912277480472,13
3.6506084347391234,-0.7723147167251653,13
3.660610101683614,-0.7787330507482723,13
3.670611768628105,-0.7934566344643605,13
3.6806134355725955,-0.726436828591972,13
3.690615102517086,-0.7220934706212104,13
3.7006167694615772,-0.6506918744228354,13
3.710618436406068,-0.589921221394269,13
3.7206201033505586,-0.4900095129147893,13
3.7306217702950493,-0.38811663832139554,13
3.74062343723954,-0.2741946929893494,13
3.7506251041840306,-0.18879581586009714,13
3.7606267711285217,-0.03983664828856004,13
3.7706284380730124,0.059477377730118866,13
3.780630105017503,0.19191888172708074,13
3.7906317719619937,0.2987941313627688,13
3.8006334389064844,0.4019951542473317,13
3.810635105850975,0.5184827539774728,13
3.820636772795466,0.588107601152087,13
3.830638439739957,0.6478050608173318,13
3.8406401066844476,0.7126173433624835,13
3.8506417736289382,0.7464860201521103,13
3.860643440573429,0.7705908363394413,13
3.87064510751792,0.769500863194719,13
3.8806467744624107,0.7725093286254765,13
3.8906484414069014,0.7533050426294458,13
3.900650108351392,0.7117469078340811,13
3.9106517752958827,0.6513342369779986,13
3.9206534422403734,0.6033211898487999,13
3.9306551091848645,0.5411713890589208,13
3.940656776129355,0.4779894128528089,13
3.950658443073846,0.39634320251464594,13
3.9606601100183365,0.3516979535055134,13
3.970661776962827,0.28163680414756115,13
3.980663443907318,0.22231155732736654,13
3.990665110851809,0.15583829243558145,13
4.000666777796299,0.11819157129522674,13
4.01066844474079,0.08309683790462864,13
4.020670111685281,0.05141184936171741,13
4.030671778629772,0.02066224249692546,13
4.040673445574263,0.01432787164279968,13
4.0506751125187535,0.009748464059316321,13
4.060676779463244,0.004469689936226399,13
4.070678446407735,-0.008360990043604698,13
4.0806801133522255,0.000958641050470448,13
4.090681780296716,-0.020500436993875226,13
4.100683447241207,-0.00387291300778303,13
4.1106851141856975,-0.017020557990806533,13
4.120686781130188,-0.006245054570369217,13
4.130688448074679,-0.03093468648711236,13
4.14069011501917,-0.07714715924298693,13
4.150691781963661,-0.08723532120024638,13
4.160693448908152,-0.14325280654509653,13
4.170695115852642,-0.188772009020505,13
4.180696782797133,-0.23288999619270906,13
4.190698449741624,-0.3024742096705405,13
4.200700116686114,-0.3738817392748027,13
4.210701783630605,-0.43695331501747037,13
4.220703450575096,-0.4993966737094386,13
4.2307051175195864,-0.5734673289036865,13
4.240706784464077,-0.6310880858880927,13
4.250708451408569,-0.6856100027365963,13
4.260710118353059,-0.7321117806881534,13
4.27071178529755,-0.7619401043988364,13
4.280713452242041,-0.7730579585574459,13
4.290715119186531,-0.7726643903057495,13
4.300716786131022,-0.7606345959907068,13
4.310718453075513,-0.7394133234131619,13
4.320720120020003,-0.6840054343685221,13
4.330721786964494,-0.6433130247006691,13
4.340723453908985,-0.5587035316375694,13
4.350725120853475,-0.4716441932429773,13
4.360726787797966,-0.36824257370990604,13
4.370728454742458,-0.26004318445344105,13
4.380730121686948,-0.15806966754417548,13
4.390731788631439,-0.01696305633775374,13
4.40073345557593,0.1016721048649729,13
4.41073512252042,0.19741376879175337,13
4.420736789464911,0.33661615560892055,13
4.430738456409402,0.44113641022084094,13
4.440740123353892,0.5184411837923804,13
4.450741790298383,0.5889736163130773,13
4.460743457242874,0.67226421701787,13
4.470745124187364,0.721067387010027,13
4.480746791131855,0.7551854657007329,13
4.490748458076347,0.7698669538344692,13
4.500750125020837,0.7897822468612943,13
4.510751791965328,0.7596180735775988,13
4.520753458909819,0.7401704869511538,13
4.530755125854309,0.6903377218384993,13
4.5407567927988,0.667347526764956,13
4.550758459743291,0.596973873611704,13
4.560760126687781,0.5300303826441051,13
4.570761793632272,0.47596591212709777,13
4.580763460576763,0.40200262991632646,13
4.590765127521253,0.3261906924164114,13
4.600766794465745,0.2538490692537058,13
4.6107684614102356,0.21375493628464698,13
4.620770128354726,0.1640540174274087,13
4.630771795299217,0.1300716739564605,13
4.640773462243708,0.07702477252915063,13
4.650775129188198,0.03976837658426703,13
4.660776796132689,0.04050394511609717,13
4.67077846307718,0.015208339688156337,13
4.68078013002167,0.010961537156284956,13
4.690781796966161,0.00991064044800829,13
4.700783463910652,0.0008013026094306796,13
4.710785130855142,-0.013855355867181202,13
4.720786797799634,-0.01452484983763632,13
4.7307884647441245,-0.014430338039696379,13
4.740790131688615,-0.023720914658898307,13
4.750791798633106,-0.03599057334740336,13
4.7607934655775965,-0.04777061541913925,13
4.770795132522087,-0.06996931908859613,13
4.780796799466578,-0.11060165421504276,13
4.7907984664110685,-0.1676839243095536,13
4.800800133355559,-0.21481436166508439,13
4.81080180030005,-0.24475821787040664,13
4.820803467244541,-0.3068929331812887,13
4.830805134189032,-0.37040097283812345,13
4.840806801133523,-0.457947302701917,13
4.8508084680780135,-0.5288319866737037,13
4.860810135022504,-0.5835638349606739,13
4.870811801966995,-0.6534206698807822,13
4.8808134689114855,-0.6956727619922745,13
4.890815135855976,-0.7416144302480968,13
4.900816802800467,-0.7797551061442696,13
4.9108184697449575,-0.7901463452479957,13
4.920820136689448,-0.7752181094183627,13
4.930821803633939,-0.7731255295586225,13
4.9408234705784295,-0.7267290918654845,13
4.950825137522921,-0.6689817511804098,13
4.960826804467412,-0.6210077241297941,13
4.970828471411902,-0.5402913242665214,13
4.980830138356393,-0.4254266374200073,13
4.990831805300884,-0.3457785570201014,13
5.0008334722453744,-0.21900721516945967,13
5.010835139189865,-0.10545957247585835,13
5.020836806134356,0.02072393719369039,13
5.0308384730788465,0.12312406645936887,13
5.040840140023337,0.22934538949140848,13
5.050841806967828,0.3641180826279691,13
5.0608434739123185,0.4561016269807953,13
5.07084514085681,0.5343825027819133,13
5.080846807801301,0.6155173101644295,13
5.090848474745791,0.6872083880370579,13
5.100850141690282,0.7539614956380782,13
5.110851808634773,0.7633719404701589,13
5.120853475579263,0.7891501022659728,13
5.130855142523754,0.7810161530378837,13
5.140856809468245,0.7589506265095659,13
5.150858476412735,0.7272139045016092,13
5.160860143357226,0.7176289046246084,13
5.170861810301717,0.6400536130335134,13
5.180863477246208,0.592007104802959,13
5.190865144190699,0.5064433692049238,13
5.20086681113519,0.4471052061859873,13
5.21086847807968,0.37960301784891165,13
5.220870145024171,0.3157331257962554,13
5.230871811968662,0.24075246864005578,13
5.240873478913152,0.1987040744043736,13
5.250875145857643,0.16320537289606804,13
5.260876812802134,0.11636251076654575,13
5.270878479746624,0.066642468031215,13
5.280880146691115,0.05252402689584614,13
5.290881813635606,0.02811148526058635,13
5.300883480580097,-0.008109600539709272,13
5.310885147524588,-0.003360062336182363,13
5.320886814469079,0.016657431839104574,13
5.330888481413569,-0.013304505796885371,13
5.34089014835806,0.0008579936244483785,13
5.350891815302551,-0.00046296064940301964,13
5.360893482247041,0.016714296334871332,13
5.370895149191532,-0.009896306425512987,13
5.380896816136023,-0.021206789467341423,13
5.390898483080513,-0.047167650376662436,13
5.400900150025004,-0.08574346745524358,13
5.410901816969495,-0.11508736401009237,13
5.420903483913986,-0.17140350976313357,13
5.430905150858477,-0.2199441156836502,13
5.440906817802968,-0.2590497903095233,13
5.450908484747458,-0.3020662481459521,13
5.460910151691949,-0.41799428818809525,13
5.47091181863644,-0.4947720534020681,13
5.48091348558093,-0.5398907847886089,13
5.490915152525421,-0.6064662078029395,13
5.500916819469912,-0.6479539828695813,13
5.510918486414402,-0.7047698754533424,13
5.520920153358893,-0.7387397658230048,13
5.5309218203033845,-0.7570337280813176,13
5.540923487247875,-0.7934884659905375,13
5.550925154192366,-0.7886761537756022,13
5.5609268211368565,-0.7402486422500569,13
5.570928488081347,-0.722914683696856,13
5.580930155025838,-0.6865486448573144,13
5.590931821970329,-0.6039183383444776,13
5.600933488914819,-0.5137401748040421,13
5.61093515585931,-0.4164915269810395,13
5.620936822803801,-0.311580802186755,13
5.630938489748291,-0.20335676861105065,13
5.640940156692782,-0.08945774296026283,13
5.6509418236372735,0.039763891958838615,13
5.660943490581764,0.13543401548716408,13
5.670945157526255,0.2792141260542499,13
5.6809468244707455,0.3690420018545037,13
5.690948491415236,0.4703048011870481,13
5.700950158359727,0.5695465805829496,13
5.7109518253042175,0.6415231705536624,13
5.720953492248708,0.6912498631174143,13
5.730955159193199,0.7447461813499663,13
5.7409568261376895,0.7629935576283471,13
5.75095849308218,0.788491286816962,13
5.760960160026672,0.778481604982288,13
5.7709618269711624,0.7415437843099336,13
5.780963493915653,0.747709799950565,13
5.790965160860144,0.6756918935709249,13
5.8009668278046345,0.6189298482949877,13
5.810968494749125,0.5812363847410117,13
5.820970161693616,0.4894155273970295,13
5.8309718286381065,0.43457796440529256,13
5.840973495582597,0.3576790610464516,13
5.850975162527088,0.2905468657709008,13
5.8609768294715785,0.24383967407661625,13
5.870978496416069,0.19501781192989964,13
5.880980163360561,0.13096874722731378,13
5.890981830305051,0.09447443627905486,13
5.900983497249542,0.05015004852669783,13
5.910985164194033,0.03557634919044669,13
5.920986831138523,0.013730181738364104,13
5.930988498083014,0.0012627192140875496,13
5.940990165027505,-0.01380222334949047,13
5.950991831971995,0.007993574272138648,13
5.960993498916486,-0.011339177409344278,13
5.970995165860977,0.01380406542570544,13
5.9809968328054675,0.0210822383294426,13
5.990998499749958,0.0044401178043752335,13
6.00100016669445,-0.024503403507452077,13
6.01100183363894,-0.034184669488721176,13
6.021003500583431,-0.07177728192671079,13
6.031005167527922,-0.09957494739799037,13
6.041006834472412,-0.13157694776852263,13
6.051008501416903,-0.17083415958475057,13
6.061010168361394,-0.2287623456561552,13
6.071011835305884,-0.2969970138397797,13
6.081013502250375,-0.3590414775719214,13
6.091015169194866,-0.4162938249446391,13
6.101016836139356,-0.49715222860384883,13
6.111018503083848,-0.5349979099534871,13
6.121020170028339,-0.6242079135081524,13
6.131021836972829,-0.6732623068563304,13
6.14102350391732,-0.7155200856278218,13
6.151025170861811,-0.7461520592687365,13
6.161026837806301,-0.7718097927824114,13
6.171028504750792,-0.7683916125425948,13
6.181030171695283,-0.7676381927299565,13
6.191031838639773,-0.7451577899281412,13
6.201033505584264,-0.696615590145164,13
6.211035172528755,-0.66189591639379,13
6.221036839473245,-0.5890929536258785,13
6.231038506417737,-0.4946305576344844,13
6.241040173362228,-0.40990332002671725,13
6.251041840306718,-0.2754555001371568,13
6.261043507251209,-0.18405890059595434,13
6.2710451741957,-0.05352252467501234,13
6.28104684114019,0.0821667822057599,13
6.291048508084681,0.19617508837476666,13
6.301050175029172,0.30702338134818363,13
6.311051841973662,0.3952728285164041,13
6.321053508918153,0.5102278962570195,13
6.331055175862644,0.5671143049673467,13
6.341056842807134,0.6561304347354554,13
6.351058509751626,0.7053216442402173,13
6.361060176696117,0.7558109518785983,13
6.371061843640607,0.7723523021132364,13
6.381063510585098,0.7863985112193697,13
6.391065177529589,0.7749193781406141,13
6.401066844474079,0.727659507347789,13
6.41106851141857,0.7089283426031817,13
6.421070178363061,0.6665680442478644,13
6.431071845307551,0.5972031539174222,13
6.441073512252042,0.5399142098370853,13
6.451075179196533,0.4771290211023925,13
6.461076846141024,0.4087599666984358,13
6.471078513085515,0.3466790238735866,13
6.4810801800300055,0.28052311123867235,13
6.491081846974496,0.22444796381727958,13
6.501083513918987,0.18239965043719805,13
6.5110851808634775,0.13690139400181991,13
6.521086847807968,0.07784520724195748,13
6.531088514752459,0.05278225943896151,13
6.54109018169695,0.03793868057544511,13
6.55109184864144,0.007724891787416305,13
6.561093515585931,-0.017848796113473647,13
6.571095182530422,-0.007350232965688545,13
6.581096849474913,0.00919016664386178,13
6.591098516419404,-0.005629072922187419,13
6.6011001833638945,-0.016480100341029317,13
6.611101850308385,-0.0061587745654606355,13
6.621103517252876,-0.005973996223285908,13
6.6311051841973665,-0.01806078570734728,13
6.641106851141857,-0.05221073294408135,13
6.651108518086348,-0.07143826292604578,13
6.6611101850308385,-0.08732934660445639,13
6.671111851975329,-0.1377917885577005,13
6.68111351891982,-0.18387586875370115,13
6.6911151858643105,-0.24215534555831864,13
6.701116852808802,-0.3145417704234612,13
6.711118519753293,-0.36360610185033265,13
6.721120186697783,-0.4509618631790194,13
6.731121853642274,-0.5063501748707341,13
6.741123520586765,-0.5772967027273175,13
6.7511251875312555,-0.6155448750780664,13
6.761126854475746,-0.6834040436329171,13
6.771128521420237,-0.7351834345935874,13
6.7811301883647275,-0.7609197350975094,13
6.791131855309218,-0.7815491409974191,13
6.801133522253709,-0.7986089149776697,13
6.8111351891982,-0.7624526108091917,13
6.821136856142691,-0.7480371376922269,13
6.831138523087182,-0.7045806953851298,13
6.841140190031672,-0.6296794646249929,13
6.851141856976163,-0.5606521828622035,13
6.861143523920654,-0.45699297741894745,13
6.871145190865144,-0.36690280020379085,13
6.881146857809635,-0.25020920176349326,13
6.891148524754126,-0.131824785959621,13
6.901150191698616,-0.01809923002347941,13
6.911151858643107,0.09036617141943529,13
6.921153525587598,0.20276991932542726,13
6.931155192532089,0.3290676381620968,13
6.94115685947658,0.43338666247235164,13
6.951158526421071,0.519787197888913,13
6.961160193365561,0.599503870449088,13
6.971161860310052,0.6656295724348561,13
6.981163527254543,0.7245110296645041,13
6.991165194199033,0.742302380762991,13
7.001166861143524,0.7884688929317264,13
7.011168528088015,0.7665597161476883,13
7.021170195032505,0.7578939618712014,13
7.031171861976996,0.7359216105656411,13
7.041173528921487,0.704133530555227,13
7.051175195865978,0.6699601446415221,13
7.061176862810469,0.6023025628887879,13
7.07117852975496,0.5309774774006237,13
7.08118019669945,0.46598081834679433,13
7.091181863643941,0.40274679159268933,13
7.101183530588432,0.32979648553670204,13
7.111185197532922,0.256651392433528,13
7.121186864477413,0.20888418566890146,13
7.131188531421904,0.17048008153898114,13
7.141190198366394,0.11603858096218479,13
7.151191865310885,0.1056174433615237,13
7.161193532255377,0.050752369384655126,13
7.171195199199867,0.026251891279427095,13
7.181196866144358,-0.0011467204033179055,13
7.191198533088849,-0.0020580866483732533,13
7.201200200033339,0.01082195326523637,13
7.21120186697783,-0.013252554606623779,13
7.221203533922321,0.0010387735546226677,13
7.231205200866811,0.014422976590644341,13
7.241206867811302,-0.008301562808453938,13
7.251208534755793,-3.336904362576283e-05,13
7.261210201700283,-0.02350292150449028,13
7.271211868644774,-0.04868509107114026,13
7.2812135355892655,-0.0795748526887843,13
7.291215202533756,-0.09887329641274356,13
7.301216869478247,-0.14755959036337535,13
7.311218536422738,-0.2029408133812943,13
7.321220203367228,-0.2596831163643547,13
7.331221870311719,-0.32544822028789117,13
7.34122353725621,-0.39036637931604823,13
7.3512252042007,-0.4610517687315068,13
7.361226871145191,-0.5287975738404825,13
7.371228538089682,-0.572581761784477,13
7.381230205034172,-0.6275107531716055,13
7.391231871978664,-0.707020239239612,13
7.4012335389231545,-0.748673659684959,13
7.411235205867645,-0.7684172822225281,13
7.421236872812136,-0.7804285997320501,13
7.4312385397566265,-0.783306575584271,13
7.441240206701117,-0.7498937344714792,13
7.451241873645608,-0.7329993281331233,13
7.4612435405900985,-0.6866726638297751,13
7.471245207534589,-0.5940198677648625,13
7.48124687447908,-0.5500759857010475,13
7.4912485414235706,-0.4638354157669036,13
7.501250208368061,-0.34871880309092906,13
7.511251875312553,-0.23410738713413093,13
7.5212535422570435,-0.12388984795151678,13
7.531255209201534,0.010409498775325633,13
7.541256876146025,0.10619710634957502,13
7.5512585430905155,0.24688137309943212,13
7.561260210035006,0.3661223100735418,13
7.571261876979497,0.4520366100417725,13
7.5812635439239875,0.544049970448435,13
7.591265210868478,0.6217624176963703,13
7.601266877812969,0.6953196999233999,13
7.6112685447574595,0.7304475839618766,13
7.62127021170195,0.7829496123098781,13
7.631271878646442,0.769832549970612,13
7.641273545590932,0.7594421930010039,13
7.651275212535423,0.7736226229457535,13
7.661276879479914,0.7334286938131408,13
7.671278546424404,0.6956910231034583,13
7.681280213368895,0.6055954915883675,13
7.691281880313386,0.5985018226346493,13
7.7012835472578764,0.5210071932389719,13
7.711285214202367,0.4588173019079377,13
7.721286881146858,0.37190537624668063,13
7.7312885480913485,0.29497783576068276,13
7.74129021503584,0.2529490188591798,13
7.751291881980331,0.19909078530028784,13
7.761293548924821,0.1540416854984615,13
7.771295215869312,0.09983956638135684,13
7.781296882813803,0.06755534145512197,13
7.791298549758293,0.04484455989751399,13
7.801300216702784,0.026655015029585557,13
7.811301883647275,0.014309789361841987,13
7.821303550591765,0.01996696519088536,13
7.831305217536256,0.022990271460204992,13
7.841306884480747,-0.005721327204245088,13
7.851308551425237,0.004683246248584648,13
7.861310218369729,-0.008399937991339718,13
7.87131188531422,-0.01031918663905962,13
7.88131355225871,-0.012086884465152796,13
7.891315219203201,-0.04365966285785705,13
7.901316886147692,-0.056888658489036445,13
7.911318553092182,-0.08993957937898654,13
7.921320220036673,-0.12293326974070083,13
7.931321886981164,-0.16645320678597308,13
7.941323553925654,-0.20756152911464376,13
7.951325220870145,-0.2731376488636385,13
7.961326887814636,-0.32520658755923565,13
7.971328554759126,-0.4088247694249631,13
7.981330221703618,-0.4634042453637754,13
7.991331888648109,-0.5401087518714045,13
8.001333555592598,-0.6121825466796066,13
8.01133522253709,-0.6645908201729744,13
8.02133688948158,-0.7056672583470277,13
8.031338556426071,-0.7366782363217783,13
8.041340223370563,-0.7635251776563055,13
8.051341890315053,-0.7655173404412327,13
8.061343557259544,-0.766225772379204,13
8.071345224204034,-0.7493403348814585,13
8.081346891148526,-0.7218725607052914,13
8.091348558093015,-0.6542819280458537,13
8.101350225037507,-0.599109904274404,13
8.111351891981997,-0.5094611542642551,13
8.121353558926488,-0.4294330892901328,13
8.131355225870978,-0.30318037677637755,13
8.14135689281547,-0.19996217555442422,13
8.151358559759961,-0.07843904260846783,13
8.161360226704451,0.02371276227072535,13
8.171361893648942,0.1804243352846772,13
8.181363560593432,0.2712040979826979,13
8.191365227537924,0.417496438768171,13
8.201366894482414,0.47154348728446777,13
8.211368561426905,0.5715171376036605,13
8.221370228371395,0.6668666345394889,13
8.231371895315887,0.6968141690607293,13
8.241373562260376,0.7445094993651845,13
8.251375229204868,0.7635928062375709,13
8.261376896149358,0.7636894721658827,13
8.27137856309385,0.7603221459001136,13
8.28138023003834,0.762723052117058,13
8.29138189698283,0.7195694820182175,13
8.301383563927322,0.6760665582903497,13
8.311385230871812,0.617892442971466,13
8.321386897816303,0.5522001297345686,13
8.331388564760793,0.48386473108683664,13
8.341390231705285,0.43373248196308745,13
8.351391898649775,0.3687780832461264,13
8.361393565594266,0.28368293031554226,13
8.371395232538756,0.2278849301506153,13
8.381396899483248,0.17545407425448387,13
8.391398566427739,0.15375885441342813,13
8.401400233372229,0.0876953035402698,13
8.41140190031672,0.06896225895675819,13
8.42140356726121,0.04848991814650504,13
8.431405234205702,0.015465509690968205,13
8.441406901150192,0.01864780371861411,13
8.451408568094683,-0.0018524738972677734,13
8.461410235039173,0.006499301249344501,13
8.471411901983664,-0.001552243855774539,13
8.481413568928154,0.005929827705848426,13
8.491415235872646,-0.005688438286109876,13
8.501416902817137,-0.012249016932262831,13
8.511418569761627,-0.03198447123062538,13
8.521420236706119,-0.025780105812384258,13
8.531421903650608,-0.05160563856290887,13
8.5414235705951,-0.08538637137495737,13
8.55142523753959,-0.1336219203743848,13
8.561426904484081,-0.17472529088287642,13
8.571428571428571,-0.2288643792610285,13
8.581430238373063,-0.27762740233284067,13
8.591431905317553,-0.353427677810935,13
8.601433572262044,-0.42993593311675155,13
8.611435239206534,-0.4921898997417166,13
8.621436906151025,-0.5308225949614674,13
8.631438573095517,-0.6025703938178624,13
8.641440240040007,-0.6578730117492032,13
8.651441906984498,-0.7145826928154494,13
8.661443573928988,-0.747886297224724,13
8.67144524087348,-0.7650410138282041,13
8.68144690781797,-0.7704897833217013,13
8.691448574762461,-0.7547227419198536,13
8.70145024170695,-0.7476939772082328,13
8.711451908651442,-0.6901747423088018,13
8.721453575595932,-0.6288788884380909,13
8.731455242540424,-0.5798868708513762,13
8.741456909484915,-0.4837573232910507,13
8.751458576429405,-0.39938212537181067,13
8.761460243373897,-0.2751028033994141,13
8.771461910318386,-0.17828524484516484,13
8.781463577262878,-0.057880434565017104,13
8.791465244207368,0.046711868258051514,13
8.80146691115186,0.1631521520056624,13
8.811468578096349,0.2888194817778033,13
8.82147024504084,0.41029347033060554,13
8.83147191198533,0.5040754647231168,13
8.841473578929822,0.5813549514586411,13
8.851475245874314,0.6698514158497254,13
8.861476912818803,0.7032522967940045,13
8.871478579763295,0.7499237500953183,13
8.881480246707785,0.7723944192568328,13
8.891481913652276,0.7614620438556059,13
8.901483580596766,0.7690104702788891,13
8.911485247541258,0.7495870455170519,13
8.921486914485747,0.7241361077607558,13
8.931488581430239,0.666730956551756,13
8.941490248374729,0.6081571220260197,13
8.95149191531922,0.5342133352653119,13
8.96149358226371,0.49654647682808173,13
8.971495249208202,0.4019460775290923,13
8.981496916152693,0.34094051961010663,13
8.991498583097183,0.29139374906555343,13
9.001500250041675,0.2214379257100519,13
9.011501916986164,0.17248691986234282,13
9.021503583930656,0.12980377571006202,13
9.031505250875146,0.08445399252145731,13
9.041506917819637,0.05666564180877654,13
9.051508584764127,0.029514375782324912,13
9.061510251708619,0.017270040495301467,13
9.071511918653108,0.0015626359067090938,13
9.0815135855976,0.0032206706186648903,13
9.091515252542091,-0.011304486461083403,13
9.101516919486581,-0.0028252797627439366,13
9.111518586431073,-0.003642513770592857,13
9.121520253375563,-0.0003403294772549954,13
9.131521920320054,-0.004329643133223475,13
9.141523587264544,-0.03167951341437688,13
9.151525254209036,-0.024257759862479043,13
9.161526921153525,-0.06898946299995004,13
9.171528588098017,-0.08811010787197814,13
9.181530255042507,-0.1374557742258292,13
9.191531921986998,-0.1903696132527437,13
9.20153358893149,-0.24383393132647085,13
9.21153525587598,-0.3114780325821339,13
9.221536922820471,-0.3643444014735522,13
9.231538589764961,-0.43382255352140664,13
9.241540256709452,-0.4946224320206581,13
9.251541923653942,-0.5687090369603514,13
9.261543590598434,-0.6329635160854238,13
9.271545257542924,-0.6631434970968272,13
9.281546924487415,-0.7126028951681314,13
9.291548591431905,-0.7698628060155067,13
9.301550258376396,-0.762838577053078,13
9.311551925320888,-0.7762798381420585,13
9.321553592265378,-0.775486051039178,13
9.33155525920987,-0.7316709909543286,13
9.34155692615436,-0.6736409375581579,13
9.35155859309885,-0.6207092196869328,13
9.36156026004334,-0.5627270568499806,13
9.371561926987832,-0.4442321581046206,13
9.381563593932322,-0.35364350035613756,13
9.391565260876813,-0.26598203168135504,13
9.401566927821303,-0.13491741206128033,13
9.411568594765795,-0.014526709496403254,13
9.421570261710285,0.10161388646076186,13
9.431571928654776,0.2202290015723213,13
9.441573595599268,0.3335426948991149,13
9.451575262543757,0.4198328900812412,13
9.461576929488249,0.5294419104879374,13
9.471578596432739,0.6006057029263293,13
9.48158026337723,0.6752714025871847,13
9.49158193032172,0.7328853746439784,13
9.501583597266212,0.7816891127370882,13
9.511585264210701,0.7730631415994227,13
9.521586931155193,0.7815465384569877,13
9.531588598099683,0.7507990242632585,13
9.541590265044174,0.739449961955438,13
9.551591931988666,0.7001018026659067,13
9.561593598933156,0.6638517771611316,13
9.571595265877647,0.5943309791773276,13
9.581596932822137,0.5247587879313425,13
9.591598599766629,0.45901376849455966,13
9.601600266711118,0.3895023148468286,13
9.61160193365561,0.3153154516491832,13
9.6216036006001,0.2503386314570535,13
9.631605267544591,0.22159027866348394,13
9.641606934489081,0.18634860202526388,13
9.651608601433573,0.11385483675380749,13
9.661610268378064,0.07594876753760658,13
9.671611935322554,0.05000413829298311,13
9.681613602267046,0.0310788311843348,13
9.691615269211535,0.005873088554880203,13
9.701616936156027,0.011788256486648479,13
9.711618603100517,-0.00319133336158103,13
9.721620270045008,0.007358645180165906,13
9.731621936989498,-0.014341996427598834,13
9.74162360393399,0.013999101585817436,13
9.75162527087848,-0.014947304731900882,13
9.761626937822971,-0.0007348827185900721,13
9.77162860476746,-0.027276511657364576,13
9.781630271711952,-0.03903451519397295,13
9.791631938656444,-0.07546253894309438,13
9.801633605600934,-0.10488235508699609,13
9.811635272545425,-0.15356691539370698,13
9.821636939489915,-0.2181817052648903,13
9.831638606434407,-0.2507004945440884,13
9.841640273378896,-0.34004315158214077,13
9.851641940323388,-0.3818663891639891,13
9.861643607267878,-0.46122476832925835,13
9.87164527421237,-0.5117740498440565,13
9.881646941156859,-0.5730833815054299,13
9.89164860810135,-0.6471068512057521,13
9.901650275045842,-0.682549789870404,13
9.911651941990332,-0.7282558567690177,13
9.921653608934824,-0.7604830280171859,13
9.931655275879313,-0.7799841794557185,13
9.941656942823805,-0.7785024852811987,13
9.951658609768295,-0.7552061897105617,13
9.961660276712786,-0.7295285113670484,13
9.971661943657276,-0.6782110322499098,13
9.981663610601768,-0.6192119246447044,13
9.991665277546257,-0.5260598653418496,13
10.001666944490749,-0.441959737415034,13
10.01166861143524,-0.3672234375636807,13
10.02167027837973,-0.23455704380548953,13
10.031671945324222,-0.08136742288869443,13
10.041673612268712,0.013400990077954922,13
10.051675279213203,0.13740865486072074,13
10.061676946157693,0.2580882755407064,13
10.071678613102184,0.34698047067580073,13
10.081680280046674,0.4474515424941029,13
10.091681946991166,0.5492135097931882,13
10.101683613935656,0.6390671426961851,13
10.111685280880147,0.6858933726743638,13
10.121686947824637,0.7470734834824552,13
10.131688614769129,0.7754314902692222,13
10.14169028171362,0.779216496972928,13
10.15169194865811,0.8049345508547502,13
10.161693615602601,0.7783783458032256,13
10.171695282547091,0.7267091172661819,13
10.181696949491583,0.6933509458583749,13
10.191698616436073,0.6350678368461461,13
10.201700283380564,0.5664249965359534,13
10.211701950325054,0.5087925561731347,13
10.221703617269545,0.4444772950661603,13
10.231705284214035,0.3857298303125371,13
10.241706951158527,0.3109452527415825,13
10.251708618103018,0.23448458006051726,13
10.261710285047508,0.187598785268892,13
10.271711951992,0.1537667200099176,13
10.28171361893649,0.10388990352696213,13
10.291715285880981,0.08169131529183091,13
10.30171695282547,0.037067680418015475,13
10.311718619769962,0.01897061300902505,13
10.321720286714452,0.02083831966797891,13
10.331721953658944,0.017291506001488995,13
10.341723620603434,0.009728573241136445,13
10.351725287547925,-0.0040981228550629805,13
10.361726954492417,-0.012896796231419342,13
10.371728621436906,0.012923613037378451,13
10.381730288381398,-0.002486589960798043,13
10.391731955325888,-0.004371075745528924,13
10.40173362227038,-0.0416504924383294,13
10.41173528921487,-0.06551540957227993,13
10.42173695615936,-0.09234961204316192,13
10.43173862310385,-0.12889394063540008,13
10.441740290048342,-0.17743142490406574,13
10.451741956992832,-0.20696036469538273,13
10.461743623937323,-0.28927172360847747,13
10.471745290881813,-0.34240875474682475,13
10.481746957826305,-0.3960586685849001,13
10.491748624770796,-0.4808567684656093,13
10.501750291715286,-0.5413458841836748,13
10.511751958659778,-0.599124062148013,13
10.521753625604267,-0.6649630177063952,13
10.531755292548759,-0.7118272975483367,13
10.541756959493249,-0.7473190781798748,13
10.55175862643774,-0.7703485575221646,13
10.56176029338223,-0.7845847128361586,13
10.571761960326722,-0.7742523459908707,13
10.581763627271211,-0.7587093575622631,13
10.591765294215703,-0.7195734922929942,13
10.601766961160195,-0.6594379397695769,13
10.611768628104684,-0.5938654095862993,13
10.621770295049176,-0.5015305894772366,13
10.631771961993666,-0.42054616390388705,13
10.641773628938157,-0.29862773951028687,13
10.651775295882647,-0.18812544136448936,13
10.661776962827139,-0.08974633809454824,13
10.671778629771628,0.03024568678637808,13
10.68178029671612,0.17294034424759192,13
10.69178196366061,0.2706746438630935,13
10.701783630605101,0.3768547749094684,13
10.711785297549593,0.47436366960253007,13
10.721786964494083,0.5627510334153799,13
10.731788631438574,0.6528883674243054,13
10.741790298383064,0.6771810682497563,13
10.751791965327556,0.7347993808120715,13
10.761793632272045,0.763541693720269,13
10.771795299216537,0.7787409447263424,13
10.781796966161027,0.7809650718078223,13
10.791798633105518,0.7576457862153422,13
10.801800300050008,0.6993539958016367,13
10.8118019669945,0.6648943334969363,13
10.82180363393899,0.6191582745540691,13
10.831805300883481,0.5454904560277696,13
10.841806967827972,0.514256227099086,13
10.851808634772462,0.42240846138336813,13
10.861810301716954,0.36988168124024157,13
10.871811968661444,0.2925275912137246,13
10.881813635605935,0.21592878009781954,13
10.891815302550425,0.21092056769406844,13
10.901816969494917,0.1355824359121592,13
10.911818636439406,0.08414879955737731,13
10.921820303383898,0.06972156081549974,13
10.931821970328388,0.04124409779998769,13
10.94182363727288,0.0170776602052802,13
10.95182530421737,-0.003096218709649247,13
10.96182697116186,-0.00851321849269163,13
10.971828638106352,-0.0022046267485297424,13
10.981830305050842,0.0005283670884442752,13
10.991831971995333,0.010376238269473703,13
11.001833638939823,-0.008764563713048202,13
11.011835305884315,-0.011588330015711454,13
11.021836972828805,-0.006344076138151394,13
11.031838639773296,-0.041586352733348445,13
11.041840306717786,-0.05074088690693275,13
11.051841973662277,-0.08782983689537611,13
11.061843640606769,-0.11949112998621908,13
11.071845307551259,-0.16728039736220957,13
11.08184697449575,-0.24702801442488864,13
11.09184864144024,-0.2852936905638952,13
11.101850308384732,-0.36045314106503773,13
11.111851975329222,-0.4334941985378919,13
11.121853642273713,-0.49889011477430545,13
11.131855309218203,-0.5415330033403553,13
11.141856976162694,-0.6458148303139444,13
11.151858643107184,-0.6907143961532579,13
11.161860310051676,-0.7077075723189965,13
11.171861976996166,-0.7422745487964049,13
11.181863643940657,-0.7535635172596599,13
11.191865310885149,-0.7838551005359201,13
11.201866977829638,-0.7796553550852211,13
11.21186864477413,-0.748578976367136,13
11.22187031171862,-0.7299679509012309,13
11.231871978663111,-0.6427453628840029,13
11.241873645607601,-0.6002353221697885,13
11.251875312552093,-0.5004698399051726,13
11.261876979496583,-0.4007331433472787,13
11.271878646441074,-0.2760316761422836,13
11.281880313385564,-0.17062600994103982,13
11.291881980330055,-0.06085735102349335,13
11.301883647274547,0.05871717103089703,13
11.311885314219037,0.20750904239747334,13
11.321886981163528,0.305132204899585,13
11.331888648108018,0.40812318951985754,13
11.34189031505251,0.4978279828680567,13
11.351891981997,0.5965821254829662,13
11.361893648941491,0.6666973954948184,13
11.37189531588598,0.7233068709753739,13
11.381896982830472,0.7562535091966333,13
11.391898649774962,0.7636931260944316,13
11.401900316719454,0.7966043428473022,13
11.411901983663945,0.7779214149292312,13
11.421903650608435,0.7516457692522973,13
11.431905317552927,0.7113821892559126,13
11.441906984497416,0.6571999500906046,13
11.451908651441908,0.5921046233955001,13
11.461910318386398,0.5408997252976928,13
11.47191198533089,0.48102999261082646,13
11.481913652275379,0.405788122115491,13
11.49191531921987,0.3383140121655075,13
11.50191698616436,0.2753209044234589,13
11.511918653108852,0.22138170839874755,13
11.521920320053344,0.1767369746726819,13
11.531921986997833,0.11145863227488831,13
11.541923653942325,0.10047640948918443,13
11.551925320886815,0.05457770892074465,13
11.561926987831306,0.020501344456317662,13
11.571928654775796,0.01152867359842143,13
11.581930321720288,-0.008456956481812695,13
11.591931988664777,0.01310892194187742,13
11.601933655609269,0.0051333375438674025,13
11.611935322553759,-0.014885437188670086,13
11.62193698949825,-0.005210559385931217,13
11.63193865644274,-0.012905132457087676,13
11.641940323387232,-0.02827490746158185,13
11.651941990331723,-0.007390490409114155,13
11.661943657276213,-0.046935949407535635,13
11.671945324220705,-0.07225843810412239,13
11.681946991165194,-0.08997117612919239,13
11.691948658109686,-0.1532188110474191,13
11.701950325054176,-0.19111097846862285,13
11.711951991998667,-0.23864457396835628,13
11.721953658943157,-0.31317277138398475,13
11.731955325887649,-0.37951278526327537,13
11.741956992832138,-0.42501237366343214,13
11.75195865977663,-0.5120716539423401,13
11.761960326721121,-0.578737985984083,13
11.771961993665611,-0.6264743553188195,13
11.781963660610103,-0.7022371543629795,13
11.791965327554593,-0.7274080850543706,13
11.801966994499084,-0.7466363451459164,13
11.811968661443574,-0.787415029509481,13
11.821970328388065,-0.7780704014480584,13
11.831971995332555,-0.7734813166073199,13
11.841973662277047,-0.7373169235669498,13
11.851975329221537,-0.6749709303809527,13
11.861976996166028,-0.6342931916593935,13
11.87197866311052,-0.548637813973324,13
11.88198033005501,-0.46419724578676924,13
11.891981996999501,-0.3819613006232868,13
11.90198366394399,-0.25651006325614834,13
11.911985330888482,-0.1426082938117089,13
11.921986997832972,-0.02448148139492119,13
11.931988664777464,0.10924097591369566,13
11.941990331721954,0.21441283604335407,13
11.951991998666445,0.33427961920806026,13
11.961993665610935,0.4209886864394501,13
11.971995332555426,0.5239726054343052,13
11.981996999499916,0.608256617036417,13
11.991998666444408,0.6601145145704773,13
12.0020003333889,0.7438008819156883,13
12.01200200033339,0.7547026030822177,13
12.02200366727788,0.7635770361366024,13
12.03200533422237,0.7935333441005797,13
12.042007001166862,0.7733787758563587,13
12.052008668111352,0.7378032538645498,13
12.062010335055843,0.6969541230531553,13
12.072012002000333,0.6511707992304793,13
12.082013668944825,0.5947257025416568,13
12.092015335889315,0.5420341472607267,13
12.102017002833806,0.46159873357388326,13
12.112018669778298,0.4055037569694322,13
12.122020336722787,0.32123194431326396,13
12.132022003667279,0.2570637620269238,13
12.142023670611769,0.1881992933764862,13
12.15202533755626,0.15297771359551773,13
12.16202700450075,0.10734527060637121,13
12.172028671445242,0.08437813135190625,13
12.182030338389731,0.046533997037812774,13
12.192032005334223,0.03449824265546785,13
12.202033672278713,0.006536754494661335,13
12.212035339223204,-0.004811373871048763,13
12.222037006167696,-0.00929897223800664,13
12.232038673112186,-0.007424526446609782,13
12.242040340056677,-0.003924791388775042,13
12.252042007001167,-0.006295839580919067,13
12.262043673945659,-0.008893984135268995,13
12.272045340890148,-0.024447644414698454,13
12.28204700783464,-0.03108625473650635,13
12.29204867477913,-0.045259058966371474,13
12.302050341723621,-0.08095584692625543,13
12.312052008668111,-0.10514942317142108,13
12.322053675612603,-0.15044091947587737,13
12.332055342557092,-0.2043257414336761,13
12.342057009501584,-0.2617269397259741,13
12.352058676446076,-0.32808278490539666,13
12.362060343390565,-0.3853908177208031,13
12.372062010335057,-0.45539566609092136,13
12.382063677279547,-0.5290594494074925,13
12.392065344224038,-0.5792931723488822,13
12.402067011168528,-0.6415674396004305,13
12.41206867811302,-0.6947803320987451,13
12.42207034505751,-0.7504290145971046,13
12.432072012002001,-0.7634890907012231,13
12.44207367894649,-0.77920436926979,13
12.452075345890982,-0.7763138115208735,13
12.462077012835474,-0.756555512933359,13
12.472078679779964,-0.7277370115961923,13
12.482080346724455,-0.7025356718999385,13
12.492082013668945,-0.611420293485094,13
12.502083680613437,-0.5406093264402528,13
12.512085347557926,-0.4516573874499266,13
12.522087014502418,-0.3387122729483504,13
12.532088681446908,-0.20908392142850818,13
12.5420903483914,-0.11292333478733088,13
12.552092015335889,0.01446542527233766,13
12.56209368228038,0.13964719987902452,13
12.572095349224872,0.24399508756726554,13
12.582097016169362,0.37355677138821186,13
12.592098683113853,0.4404340861744864,13
12.602100350058343,0.5466416354119865,13
12.612102017002835,0.6233524519417107,13
12.622103683947325,0.7016893191574046,13
12.632105350891816,0.7424711233877894,13
12.642107017836306,0.7682320665067267,13
12.652108684780798,0.7724259075522378,13
12.662110351725287,0.7737354935482645,13
12.672112018669779,0.7545745330980955,13
12.682113685614269,0.7235817111998437,13
12.69211535255876,0.6774277532657426,13
12.702117019503252,0.6231217779552983,13
12.712118686447742,0.5951116861562593,13
12.722120353392233,0.5251518453342572,13
12.732122020336723,0.4376859225664618,13
12.742123687281214,0.3770547884090822,13
12.752125354225704,0.31993141871110325,13
12.762127021170196,0.25734771426116715,13
12.772128688114686,0.188216828211036,13
12.782130355059177,0.1622075268059643,13
12.792132022003667,0.1157217180199164,13
12.802133688948159,0.056752112203767,13
12.81213535589265,0.046700955681651224,13
12.82213702283714,0.030210343786619062,13
12.832138689781631,-0.0005256780311786724,13
12.842140356726121,0.0006262644836876959,13
12.852142023670613,-0.0077134576380522395,13
12.862143690615103,-0.005182662096090465,13
12.872145357559594,0.0019954397208793704,13
12.882147024504084,0.006564759112729515,13
12.892148691448575,0.017763751682387058,13
12.902150358393065,-0.010838300541151223,13
12.912152025337557,-0.029653232776524114,13
12.922153692282048,-0.05789850634895157,13
12.932155359226538,-0.09718771139514285,13
12.94215702617103,-0.12478102473587813,13
12.95215869311552,-0.1733727639595798,13
12.962160360060011,-0.21668363398108983,13
12.9721620270045,-0.2861973484342176,13
12.982163693948992,-0.34391833369196667,13
12.992165360893482,-0.40178209636449025,13
13.002167027837974,-0.4855886680136647,13
13.012168694782464,-0.542606152868312,13
13.022170361726955,-0.6102166978450249,13
13.032172028671445,-0.6571185543625507,13
13.042173695615936,-0.698954731598038,13
13.052175362560428,-0.7554805879850798,13
13.062177029504918,-0.7790277908392037,13
13.07217869644941,-0.798484439260665,13
13.0821803633939,-0.7899310155304764,13
13.09218203033839,-0.7272244748763396,13
13.10218369728288,-0.735644821014579,13
13.112185364227372,-0.6489001538868789,13
13.122187031171862,-0.6061108211099272,13
13.132188698116353,-0.5260664957040918,13
13.142190365060843,-0.42168565314309053,13
13.152192032005335,-0.3057233888570912,13
13.162193698949826,-0.2031107746395614,13
13.172195365894316,-0.07225514826394551,13
13.182197032838808,0.04855302618787541,13
13.192198699783297,0.16304906699395505,13
13.202200366727789,0.2794631255117444,13
13.212202033672279,0.3824092638243356,13
13.22220370061677,0.48295720806133824,13
13.23220536756126,0.5566021209367635,13
13.242207034505752,0.6280735293430858,13
13.252208701450241,0.7211004177051782,13
13.262210368394733,0.7298146574819032,13
13.272212035339225,0.7734997020245138,13
13.282213702283714,0.7758669645044398,13
13.292215369228206,0.7636777847010836,13
13.302217036172696,0.7356906330203231,13
13.312218703117187,0.7104998566621179,13
13.322220370061677,0.6588401392713357,13
13.332222037006169,0.6135205216964327,13
13.342223703950658,0.5697143289861614,13
13.35222537089515,0.4837320847822305,13
13.36222703783964,0.42883666573924,13
13.372228704784131,0.3620635915615287,13
13.382230371728621,0.28214442072379065,13
13.392232038673113,0.22302243945165107,13
13.402233705617604,0.1868945007029624,13
13.412235372562094,0.13203894975294653,13
13.422237039506586,0.07915474675997199,13
13.432238706451075,0.055369359421131414,13
13.442240373395567,0.03951276134122079,13
13.452242040340057,0.027353239863897157,13
13.462243707284548,0.01062338429757125,13
13.472245374229038,-0.012264425996268275,13
13.48224704117353,0.009563501173987623,13
13.49224870811802,-0.0076989923078770485,13
13.502250375062511,0.004191729602633589,13
13.512252042007002,-0.006599174073963058,13
13.522253708951492,-0.01643563365035015,13
13.532255375895984,-0.01458609467752442,13
13.542257042840474,-0.04454305452379531,13
13.552258709784965,-0.05395654861379075,13
13.562260376729455,-0.08514762055825047,13
13.572262043673947,-0.12943164346181465,13
13.582263710618436,-0.1840555154977438,13
13.592265377562928,-0.2362452521820677,13
13.602267044507418,-0.29101743121592916,13
13.61226871145191,-0.36282827224759284,13
13.6222703783964,-0.4297710501646469,13
13.63227204534089,-0.5035963190363889,13
13.642273712285382,-0.553957250785768,13
13.652275379229872,-0.6132489161647787,13
13.662277046174363,-0.6623300733763253,13
13.672278713118853,-0.7191897863402998,13
13.682280380063345,-0.7322025150590544,13
13.692282047007835,-0.7713947915195952,13
13.702283713952326,-0.7828397213361128,13
13.712285380896816,-0.7492086679740069,13
13.722287047841307,-0.7440104063382952,13
13.732288714785797,-0.6977342154823012,13
13.742290381730289,-0.6333126568947022,13
13.75229204867478,-0.5549219763699392,13
13.76229371561927,-0.4919671274752824,13
13.772295382563762,-0.3925627237622806,13
13.782297049508252,-0.2775042521599524,13
13.792298716452743,-0.15625201790584967,13
13.802300383397233,-0.0352535164126941,13
13.812302050341724,0.06305025302407193,13
13.822303717286214,0.19868136301607173,13
13.832305384230706,0.30422014186694624,13
13.842307051175196,0.3901196022933649,13
13.852308718119687,0.5026867749609262,13
13.862310385064179,0.5955448734740701,13
13.872312052008668,0.659463216415262,13
13.88231371895316,0.716391080094096,13
13.89231538589765,0.749376650782111,13
13.902317052842141,0.7779568695102433,13
13.912318719786631,0.7717462822012577,13
13.922320386731123,0.7696237889421933,13
13.932322053675612,0.7394749076130548,13
13.942323720620104,0.7188959180907455,13
13.952325387564594,0.6425950387050482,13
13.962327054509085,0.5970584795622434,13
13.972328721453577,0.5320226376763397,13
13.982330388398067,0.48575900448674175,13
13.992332055342558,0.41540727385616366,13
14.002333722287048,0.33909344776864525,13
14.01233538923154,0.29776444881533576,13
14.02233705617603,0.24304436965343204,13
14.032338723120521,0.16690632787039716,13
14.04234039006501,0.12639893454608847,13
14.052342057009502,0.07575461076761236,13
14.062343723953992,0.07732527474076976,13
14.072345390898484,0.036316296453977305,13
14.082347057842973,0.0073984717709834474,13
14.092348724787465,0.014323229625074586,13
14.102350391731957,-0.007867475865395938,13
14.112352058676446,-0.013001375336566846,13
14.122353725620938,0.0035856531928789015,13
14.132355392565428,0.010014687099147523,13
14.14235705950992,-0.01510995698519324,13
14.152358726454409,-0.019468225248858557,13
14.1623603933989,-0.024095358445040987,13
14.17236206034339,-0.033609587529269166,13
14.182363727287882,-0.06411173096229628,13
14.192365394232372,-0.10119921697814592,13
14.202367061176863,-0.15180375871748936,13
14.212368728121355,-0.20981909827635684,13
14.222370395065845,-0.24547494781288234,13
14.232372062010336,-0.3083227438999708,13
14.242373728954826,-0.3839327544374743,13
14.252375395899318,-0.4376196862372583,13
14.262377062843807,-0.5408929863693048,13
14.272378729788299,-0.5762006398856857,13
14.282380396732789,-0.6439169304973589,13
14.29238206367728,-0.6847442597179623,13
14.30238373062177,-0.7264486902475904,13
14.312385397566262,-0.7542264654718718,13
14.322387064510753,-0.76374572124885,13
14.332388731455243,-0.7792261840800268,13
14.342390398399735,-0.75045676207085,13
14.352392065344224,-0.7453104471542136,13
14.362393732288716,-0.6878068365817078,13
14.372395399233206,-0.6225049075963675,13
14.382397066177697,-0.5448466031834763,13
14.392398733122187,-0.4583387587438054,13
14.402400400066679,-0.3545152825043972,13
14.412402067011168,-0.2421800777214386,13
14.42240373395566,-0.13947023511474288,13
14.432405400900151,-0.019680291305032897,13
14.442407067844641,0.07371227202269105,13
14.452408734789133,0.21593963993242993,13
14.462410401733623,0.32491386393446137,13
14.472412068678114,0.44642922830666776,13
14.482413735622604,0.5486825072092082,13
14.492415402567095,0.6096317939754897,13
14.502417069511585,0.6636222623416044,13
14.512418736456077,0.7222422117203797,13
14.522420403400567,0.756894266234815,13
14.532422070345058,0.778820062378358,13
14.542423737289548,0.7922912764113136,13
14.55242540423404,0.7587727239535542,13
14.562427071178531,0.7350254865113047,13
14.57242873812302,0.7059795564583479,13
14.582430405067512,0.6494532144168281,13
14.592432072012002,0.5947163758243132,13
14.602433738956494,0.5239144083007792,13
14.612435405900984,0.47036229078798764,13
14.622437072845475,0.37381523456137544,13
14.632438739789965,0.338707202325478,13
14.642440406734456,0.2682135278302571,13
14.652442073678946,0.21516559507519165,13
14.662443740623438,0.14219414942357264,13
14.67244540756793,0.10265763742198866,13
14.68244707451242,0.06595878520491395,13
14.69244874145691,0.057835333376642234,13
14.7024504084014,0.03512805139591249,13
14.712452075345892,0.02426863785665566,13
14.722453742290382,0.01621387726871884,13
14.732455409234873,0.01379161151599207,13
14.742457076179363,0.015148332853033204,13
14.752458743123855,-0.007265193896223843,13
14.762460410068345,0.011895075676282752,13
14.772462077012836,-0.01681905480554243,13
14.782463743957328,-0.011265978822471379,13
14.792465410901817,-0.0327077820276214,13
14.802467077846309,-0.04921268713458634,13
14.812468744790799,-0.06441948882931851,13
14.82247041173529,-0.10049720226772052,13
14.83247207867978,-0.14627897562912492,13
14.842473745624272,-0.18984141551138975,13
14.852475412568761,-0.25563879418247554,13
14.862477079513253,-0.3336583042648831,13
14.872478746457743,-0.3804488519887215,13
14.882480413402234,-0.4662244208804295,13
14.892482080346724,-0.5319642361009634,13
14.902483747291216,-0.5808435383004138,13
14.912485414235707,-0.6462301053358759,13
14.922487081180197,-0.6970058884924988,13
14.932488748124689,-0.72256588290381,13
14.942490415069178,-0.7541874427064327,13
14.95249208201367,-0.7612919458477228,13
14.96249374895816,-0.7721269209031092,13
14.972495415902651,-0.7579520367698739,13
14.982497082847141,-0.7227244714959518,13
14.992498749791633,-0.6892517470620527,13
15.002500416736122,-0.6005952889569688,13
15.012502083680614,-0.5144704265401251,13
15.022503750625106,-0.42810288922845374,13
15.032505417569595,-0.34318369668961207,13
15.042507084514087,-0.209743757849,13
15.052508751458577,-0.11834447046253345,13
15.062510418403068,0.011723790011328485,13
15.072512085347558,0.1467059662711494,13
15.08251375229205,0.2438326264148052,13
15.09251541923654,0.3666143205288505,13
15.102517086181031,0.46249620326099083,13
15.11251875312552,0.5576087459318642,13
15.122520420070012,0.6225206787672622,13
15.132522087014504,0.7005140464935545,13
15.142523753958994,0.7196105375717633,13
15.152525420903485,0.7697250215858018,13
15.162527087847975,0.7730678499816207,13
15.172528754792467,0.7671592661129529,13
15.182530421736956,0.7596182682836927,13
15.192532088681448,0.745225692090183,13
15.202533755625938,0.6897538984871949,13
15.21253542257043,0.6378818447361329,13
15.222537089514919,0.5661919205746362,13
15.23253875645941,0.5300578296751958,13
15.2425404234039,0.4332624836190076,13
15.252542090348392,0.36138354792210814,13
15.262543757292883,0.30983775029709365,13
15.272545424237373,0.26581568341114314,13
15.282547091181865,0.19374941380220334,13
15.292548758126355,0.14171998644276998,13
15.302550425070846,0.09640168385304371,13
15.312552092015336,0.06850199629299233,13
15.322553758959828,0.04292380776691261,13
15.332555425904317,0.02259079159289346,13
15.342557092848809,0.0059423908153024224,13
15.352558759793299,-0.0004539263828789888,13
15.36256042673779,0.0020616022255310956,13
15.372562093682282,-0.004348121583927633,13
15.382563760626772,-0.00025839408909371223,13
15.392565427571263,-0.004700200598913042,13
15.402567094515753,-0.00015770127461102457,13
15.412568761460244,-0.013789596502639194,13
15.422570428404734,-0.03532488785088894,13
15.432572095349226,-0.058890154446138515,13
15.442573762293716,-0.09291784848358395,13
15.452575429238207,-0.12522296297058014,13
15.462577096182697,-0.16331912794246295,13
15.472578763127188,-0.23106411295827292,13
15.48258043007168,-0.2734535590015478,13
15.49258209701617,-0.3358725677667724,13
15.502583763960661,-0.3999833669111432,13
15.512585430905151,-0.4644306146571934,13
15.522587097849643,-0.5441662553026575,13
15.532588764794133,-0.6045445357676689,13
15.542590431738624,-0.6667237606387493,13
15.552592098683114,-0.720713297782788,13
15.562593765627605,-0.7455449747973946,13
15.572595432572095,-0.7715958669001173,13
15.582597099516587,-0.7771512842689491,13
15.592598766461077,-0.7711599435973061,13
15.602600433405568,-0.7334375620100954,13
15.61260210035006,-0.7181348609574548,13
15.62260376729455,-0.6715584985266837,13
15.632605434239041,-0.5932574151371598,13
15.64260710118353,-0.5027038852444033,13
15.652608768128022,-0.40599530072467127,13
15.662610435072512,-0.31160208513634263,13
15.672612102017004,-0.19285062722411625,13
15.682613768961494,-0.07416793456322081,13
15.692615435905985,0.051273721383539625,13
15.702617102850475,0.165403633137608,13
15.712618769794966,0.2916295150964474,13
15.722620436739458,0.38150813487400503,13
15.732622103683948,0.46480613667139425,13
15.74262377062844,0.5799714257975015,13
15.752625437572929,0.6234749638348058,13
15.76262710451742,0.7015629831113024,13
15.77262877146191,0.7426012227238494,13
15.782630438406402,0.7725410133699059,13
15.792632105350892,0.7744973697397347,13
15.802633772295383,0.7791705635063317,13
15.812635439239873,0.7563649112045033,13
15.822637106184365,0.7149037552243639,13
15.832638773128856,0.6723455862511741,13
15.842640440073346,0.6307838348978586,13
15.852642107017838,0.5755284369325874,13
15.862643773962327,0.4931343652899144,13
15.872645440906819,0.423018235217573,13
15.882647107851309,0.3540278614660687,13
15.8926487747958,0.2885875222418848,13
15.90265044174029,0.2338745230860968,13
15.912652108684782,0.17987931342909624,13
15.922653775629271,0.12156665617928394,13
15.932655442573763,0.08981063617831213,13
15.942657109518253,0.06406242714302955,13
15.952658776462744,0.05606063909949869,13
15.962660443407236,0.035400909355285434,13
15.972662110351726,0.009129481143938903,13
15.982663777296217,-0.009223064135578909,13
15.992665444240707,0.011244624745471603,13
16.002667111185197,-0.016432817225080838,13
16.01266877812969,-0.0011455437314578847,13
16.02267044507418,-0.0023331026036571396,13
16.03267211201867,-0.017525866450990038,13
16.04267377896316,-0.016444181860927592,13
16.052675445907653,-0.010769656489627726,13
16.062677112852143,-0.06267061105595118,13
16.072678779796632,-0.09394904103585522,13
16.082680446741126,-0.1348240665984969,13
16.092682113685616,-0.18225520144379767,13
16.102683780630105,-0.23193058394084765,13
16.112685447574595,-0.2830682330161364,13
16.12268711451909,-0.34880486193926885,13
16.132688781463578,-0.4252688644909916,13
16.142690448408068,-0.4900314248638946,13
16.152692115352558,-0.561419107881531,13
16.16269378229705,-0.6164420281752456,13
16.17269544924154,-0.6639140828379414,13
16.18269711618603,-0.7284820523230287,13
16.192698783130524,-0.7501656581154512,13
16.202700450075014,-0.7647908703878021,13
16.212702117019504,-0.7804731338719622,13
16.222703783963993,-0.7513469913471145,13
16.232705450908487,-0.7523401473368379,13
16.242707117852976,-0.676755310552386,13
16.252708784797466,-0.6418249496971434,13
16.262710451741956,-0.5694862867498345,13
16.27271211868645,-0.486944724862912,13
16.28271378563094,-0.38918106066624925,13
16.29271545257543,-0.2664975086871517,13
16.302717119519922,-0.18637146061079188,13
16.312718786464412,-0.048623858475068296,13
16.322720453408902,0.07960768371701515,13
16.33272212035339,0.19786973628350266,13
16.342723787297885,0.29782608733663396,13
16.352725454242375,0.3899887036099459,13
16.362727121186865,0.5141430147984533,13
16.372728788131354,0.6063893338592287,13
16.382730455075848,0.6543322561921237,13
16.392732122020337,0.7126612002361785,13
16.402733788964827,0.7545968171651944,13
16.41273545590932,0.7573359303917577,13
16.42273712285381,0.7893317440431303,13
16.4327387897983,0.7664590283897569,13
16.44274045674279,0.7300249957940715,13
16.452742123687283,0.71200286093377,13
16.462743790631773,0.6663711995801884,13
16.472745457576263,0.6018767533560346,13
16.482747124520753,0.5508208348390251,13
16.492748791465246,0.49495091169240224,13
16.502750458409736,0.382313365157393,13
16.512752125354226,0.3373071165558364,13
16.522753792298715,0.274232654708945,13
16.53275545924321,0.21929016859523956,13
16.5427571261877,0.16726057589173202,13
16.55275879313219,0.13100232274514378,13
16.56276046007668,0.08585881437945776,13
16.57276212702117,0.04416256228460778,13
16.58276379396566,0.02766466443081541,13
16.59276546091015,0.02100534924216108,13
16.602767127854644,-0.003931879056169464,13
16.612768794799134,-0.007566675621360052,13
16.622770461743624,0.006900383919592254,13
16.632772128688114,-0.012244552021523246,13
16.642773795632607,0.005369602203852929,13
16.652775462577097,-0.013661727040627299,13
16.662777129521587,-0.013931359491216879,13
16.67277879646608,-0.015727365121749482,13
16.68278046341057,-0.04464593922423666,13
16.69278213035506,-0.06477462736779398,13
16.70278379729955,-0.11097098300635601,13
16.712785464244043,-0.146039847664867,13
16.722787131188532,-0.18679986247272506,13
16.732788798133022,-0.2406983537450393,13
16.742790465077512,-0.3164211628842228,13
16.752792132022005,-0.3682674205227916,13
16.762793798966495,-0.44439960765786934,13
16.772795465910985,-0.4993905940370938,13
16.782797132855478,-0.5872420019884153,13
16.792798799799968,-0.6417900688316648,13
16.802800466744458,-0.6843935670364122,13
16.812802133688947,-0.7265751123404809,13
16.82280380063344,-0.7622432969076665,13
16.83280546757793,-0.779636643343934,13
16.84280713452242,-0.7833626788068401,13
16.85280880146691,-0.7610985450985097,13
16.862810468411404,-0.731425299479481,13
16.872812135355893,-0.6873610377718747,13
16.882813802300383,-0.6359819296579815,13
16.892815469244876,-0.5481330296756279,13
16.902817136189366,-0.46768480991516154,13
16.912818803133856,-0.37131938751449145,13
16.922820470078346,-0.23679165693712279,13
16.93282213702284,-0.15493868356307355,13
16.94282380396733,-0.027497508340575814,13
16.95282547091182,0.09673838999635281,13
16.96282713785631,0.22558117756950044,13
16.972828804800802,0.34198169988955673,13
16.98283047174529,0.44937330348351145,13
16.99283213868978,0.5248515926530106,13
17.002833805634275,0.6255859243176575,13
17.012835472578764,0.6879224757382304,13
17.022837139523254,0.7276394072848458,13
17.032838806467744,0.7479841129480741,13
17.042840473412237,0.7656897657482925,13
17.052842140356727,0.7815314695449382,13
17.062843807301217,0.757310072810724,13
17.072845474245707,0.7359267006278216,13
17.0828471411902,0.7052066779577189,13
17.09284880813469,0.6466175321774665,13
17.10285047507918,0.5880912585847529,13
17.112852142023673,0.5162710382804404,13
17.122853808968163,0.46252516499595403,13
17.132855475912653,0.3825400761203629,13
17.142857142857142,0.31437953646942357,13
17.152858809801636,0.2668616694144245,13
17.162860476746125,0.20140872491579614,13
17.172862143690615,0.14959148182376195,13
17.182863810635105,0.1006606193827072,13
17.1928654775796,0.06590095136496923,13
17.202867144524088,0.05020379366694082,13
17.212868811468578,0.04372081128824547,13
17.222870478413068,0.014570294976446614,13
17.23287214535756,0.006298230280907707,13
17.24287381230205,0.008653973532662878,13
17.25287547924654,0.0017621994214043844,13
17.262877146191034,-0.001159008130431701,13
17.272878813135524,-0.014415582577116679,13
17.282880480080014,-0.012430114202717928,13
17.292882147024503,0.0010384433348839262,13
17.302883813968997,-0.03524289869478113,13
17.312885480913486,-0.042620769302517084,13
17.322887147857976,-0.05754078456819367,13
17.332888814802466,-0.09615292903115348,13
17.34289048174696,-0.14984596705134662,13
17.35289214869145,-0.19537517606696292,13
17.36289381563594,-0.2642819121407198,13
17.372895482580432,-0.3165858567584276,13
17.382897149524922,-0.3908205743261724,13
17.392898816469412,-0.4443704128513869,13
17.4029004834139,-0.5236048059359045,13
17.412902150358395,-0.5771053803885513,13
17.422903817302885,-0.6442708503621282,13
17.432905484247375,-0.6846456757824927,13
17.442907151191864,-0.7410062425202693,13
17.452908818136358,-0.7765121422865247,13
17.462910485080847,-0.7720558029121571,13
17.472912152025337,-0.7833297934524516,13
17.48291381896983,-0.7653636032475294,13
17.49291548591432,-0.7350686782828395,13
17.50291715285881,-0.6794740254281565,13
17.5129188198033,-0.5886130093887935,13
17.522920486747793,-0.5238296488459987,13
17.532922153692283,-0.4498466055025029,13
17.542923820636773,-0.31764905418189593,13
17.552925487581263,-0.22900902246747173,13
17.562927154525756,-0.11649619706435953,13
17.572928821470246,0.022255354534875947,13
17.582930488414735,0.14478478600346267,13
17.59293215535923,0.25259954017010183,13
17.60293382230372,0.3777427125768426,13
17.61293548924821,0.47026284918348443,13
17.622937156192698,0.5457145375162297,13
17.63293882313719,0.6429689953505265,13
17.64294049008168,0.7027779214600738,13
17.65294215702617,0.732713667930204,13
17.66294382397066,0.7516342094472965,13
17.672945490915154,0.7660414100545064,13
17.682947157859644,0.7665229054756619,13
17.692948824804134,0.7527946149191145,13
17.702950491748627,0.7352131554430824,13
17.712952158693117,0.6867366399535575,13
17.722953825637607,0.6421947365750333,13
17.732955492582096,0.5821050259314614,13
17.74295715952659,0.5121596258193157,13
17.75295882647108,0.445456218198697,13
17.76296049341557,0.37311806796265246,13
17.77296216036006,0.3006643645429212,13
17.782963827304552,0.24505489948108622,13
17.792965494249042,0.19256312549120497,13
17.802967161193532,0.13812669978410078,13
17.812968828138025,0.08315816500960153,13
17.822970495082515,0.08140159925623837,13
17.832972162027005,0.0503395847483119,13
17.842973828971495,0.02720504699006776,13
17.852975495915988,0.007528174387948528,13
17.862977162860478,0.0040680840129531555,13
17.872978829804968,0.0016770365871298133,13
17.882980496749457,-0.011895154767982951,13
17.89298216369395,-0.002769929735452467,13
17.90298383063844,-0.015811251407539438,13
17.91298549758293,-0.008778201076865283,13
17.92298716452742,-0.016062581991291333,13
17.932988831471913,-0.02283795538377549,13
17.942990498416403,-0.05177446506976904,13
17.952992165360893,-0.0724937856756709,13
17.962993832305386,-0.12306569481117834,13
17.972995499249876,-0.1552804277030778,13
17.982997166194366,-0.23071414041592067,13
17.992998833138856,-0.26674615701480525,13
18.00300050008335,-0.335252379196973,13
18.01300216702784,-0.4100190362654223,13
18.02300383397233,-0.4577392277658163,13
18.03300550091682,-0.5427794263453205,13
18.04300716786131,-0.6092303237876745,13
18.0530088348058,-0.6707232680374435,13
18.06301050175029,-0.7042694781005463,13
18.073012168694785,-0.7585360986688588,13
18.083013835639274,-0.7703037116935515,13
18.093015502583764,-0.78748640422735,13
18.103017169528254,-0.7783271868567128,13
18.113018836472747,-0.7516818922828509,13
18.123020503417237,-0.7129401628095525,13
18.133022170361727,-0.6558805698479732,13
18.143023837306217,-0.605658295168585,13
18.15302550425071,-0.5036437796528429,13
18.1630271711952,-0.4108970574538801,13
18.17302883813969,-0.304805090902501,13
18.183030505084183,-0.18988659031523586,13
18.193032172028673,-0.08587213582314379,13
18.203033838973163,0.034139437909504855,13
18.213035505917652,0.16405919841691588,13
18.223037172862146,0.2947727586745168,13
18.233038839806635,0.4013153933450675,13
18.243040506751125,0.4834800936143813,13
18.253042173695615,0.5648541735581034,13
18.26304384064011,0.637386109745042,13
18.273045507584598,0.6966021543122982,13
18.283047174529088,0.7260195111354618,13
18.29304884147358,0.7665628204412988,13
18.30305050841807,0.785701052679343,13
18.31305217536256,0.7883862414773495,13
18.32305384230705,0.7525187013471749,13
18.333055509251544,0.7167475430641601,13
18.343057176196034,0.6555381371339655,13
18.353058843140523,0.613432813268471,13
18.363060510085013,0.5536992171903387,13
18.373062177029507,0.48400226362679116,13
18.383063843973996,0.429205096005738,13
18.393065510918486,0.3621047000340413,13
18.40306717786298,0.2897706772796087,13
18.41306884480747,0.2422855418567245,13
18.42307051175196,0.17634805301356218,13
18.43307217869645,0.1362710424763507,13
18.443073845640942,0.09795306718345823,13
18.453075512585432,0.0669777356653159,13
18.463077179529922,0.04245522515427689,13
18.47307884647441,0.011606042749727728,13
18.483080513418905,0.011866450561502644,13
18.493082180363395,0.004754434336926471,13
18.503083847307884,-0.001685660222165096,13
18.513085514252378,0.010352392061811714,13
18.523087181196868,-0.021942343700579105,13
18.533088848141357,0.009709345714115334,13
18.543090515085847,0.00414136744561071,13
18.55309218203034,-0.03341081003019368,13
18.56309384897483,-0.04095266006316741,13
18.57309551591932,-0.06868823393534129,13
18.58309718286381,-0.08618087018104316,13
18.593098849808303,-0.11346281668131507,13
18.603100516752793,-0.18594619055038145,13
18.613102183697283,-0.24356229633827634,13
18.623103850641776,-0.3034025985497552,13
18.633105517586266,-0.3547414731016483,13
18.643107184530756,-0.445634164339913,13
18.653108851475245,-0.499611610005762,13
18.66311051841974,-0.5517727114984873,13
18.67311218536423,-0.6134194897672625,13
18.68311385230872,-0.6761692799264133,13
18.693115519253208,-0.7093042143000188,13
18.7031171861977,-0.760698108634353,13
18.71311885314219,-0.7685263501948034,13
18.72312052008668,-0.7948911896261215,13
18.73312218703117,-0.7675004490935958,13
18.743123853975664,-0.7358021213940878,13
18.753125520920154,-0.7044092909862005,13
18.763127187864644,-0.6369371106701855,13
18.773128854809137,-0.5541451946012435,13
18.783130521753627,-0.5009921951507983,13
18.793132188698117,-0.3760798265510493,13
18.803133855642606,-0.278442565709545,13
18.8131355225871,-0.16471136335919567,13
18.82313718953159,-0.045432693051879434,13
18.83313885647608,0.04964425115836013,13
18.84314052342057,0.184395097014267,13
18.853142190365062,0.3018187383648578,13
18.863143857309552,0.40460922425591667,13
18.873145524254042,0.5105643175134413,13
18.883147191198535,0.5845455816663749,13
18.893148858143025,0.6656061621216041,13
18.903150525087515,0.7329892376125869,13
18.913152192032005,0.7515378173468296,13
18.923153858976498,0.7687084426863872,13
18.933155525920988,0.7839624303271857,13
18.943157192865478,0.7744642338423756,13
18.953158859809967,0.7453331925125399,13
18.96316052675446,0.6992895868777894,13
18.97316219369895,0.6864754284097717,13
18.98316386064344,0.6082886886208821,13
18.993165527587934,0.5448705152577884,13
19.003167194532423,0.47899199743304544,13
19.013168861476913,0.41697907016733643,13
19.023170528421403,0.3323494116445175,13
19.033172195365896,0.28556098959508686,13
19.043173862310386,0.23299114033374768,13
19.053175529254876,0.16017085049250512,13
19.063177196199366,0.12449119361500965,13
19.07317886314386,0.08498221242662324,13
19.08318053008835,0.050902660674595465,13
19.09318219703284,0.022890268965841815,13
19.103183863977332,0.02338339158346483,13
19.11318553092182,-0.004165202706674526,13
19.12318719786631,0.005291398251692282,13
19.1331888648108,0.0011429649627842573,13
19.143190531755295,-0.01712533479930296,13
19.153192198699784,0.0009277629042655415,13
19.163193865644274,0.01785368314119123,13
19.173195532588764,0.006198586772877598,13
19.183197199533257,-0.029615137728121875,13
19.193198866477747,-0.032949745708469994,13
19.203200533422237,-0.05308410492972908,13
19.21320220036673,-0.08699451680728516,13
19.22320386731122,-0.1401162706553243,13
19.23320553425571,-0.18544449198697777,13
19.2432072012002,-0.275445443236324,13
19.253208868144693,-0.3031363888050986,13
19.263210535089183,-0.37582670874937557,13
19.273212202033672,-0.4502175385300885,13
19.283213868978162,-0.5080634098223815,13
19.293215535922656,-0.5641873010859312,13
19.303217202867145,-0.623473848333578,13
19.313218869811635,-0.6784090858038829,13
19.32322053675613,-0.7236480629047791,13
19.33322220370062,-0.7606720976358678,13
19.343223870645108,-0.7866968469509393,13
19.353225537589598,-0.7783062249545278,13
19.36322720453409,-0.7620206853772256,13
19.37322887147858,-0.7190334152076877,13
19.38323053842307,-0.6821816905201218,13
19.39323220536756,-0.6219169050781422,13
19.403233872312054,-0.5422525502637631,13
19.413235539256544,-0.437448569843438,13
19.423237206201033,-0.3685933874139058,13
19.433238873145523,-0.2598681869023297,13
19.443240540090017,-0.13546695045701723,13
19.453242207034506,-0.0051686451124341466,13
19.463243873978996,0.10031590390384726,13
19.47324554092349,0.22624829191775886,13
19.48324720786798,0.3293805339146652,13
19.49324887481247,0.42527359926624797,13
19.50325054175696,0.5307538495289761,13
19.513252208701452,0.5857800219077511,13
19.523253875645942,0.6815792030999253,13
19.53325554259043,0.7074475540212676,13
19.54325720953492,0.7490930611033947,13
19.553258876479415,0.7889804374475422,13
19.563260543423905,0.7788810775902806,13
19.573262210368394,0.7698016961618095,13
19.583263877312888,0.7179709100084796,13
19.593265544257378,0.6989901390947101,13
19.603267211201867,0.6565087670552773,13
19.613268878146357,0.5856379128694146,13
19.62327054509085,0.5203861623493441,13
19.63327221203534,0.4439314660925261,13
19.64327387897983,0.3989002637990749,13
19.65327554592432,0.32347954578481175,13
19.663277212868813,0.24539709276955674,13
19.673278879813303,0.19509018334143086,13
19.683280546757793,0.14294625783567294,13
19.693282213702286,0.10367463094360292,13
19.703283880646776,0.08222237534703272,13
19.713285547591266,0.056950174226046604,13
19.723287214535755,0.03058840117980861,13
19.73328888148025,0.01976017185714614,13
19.74329054842474,0.005082737850905731,13
19.75329221536923,0.0004346686839413409,13
19.763293882313718,-0.0002967680623481203,13
19.77329554925821,0.00468826257677963,13
19.7832972162027,-0.02134877604627175,13
19.79329888314719,0.0005314474154718453,13
19.803300550091684,-0.02543140077395857,13
19.813302217036174,-0.024411798597241997,13
19.823303883980664,-0.05480163962200759,13
19.833305550925154,-0.07803774352605915,13
19.843307217869647,-0.11208199019869074,13
19.853308884814137,-0.1599855178007946,13
19.863310551758627,-0.20893830777808936,13
19.873312218703116,-0.27331439322782636,13
19.88331388564761,-0.32668700615744245,13
19.8933155525921,-0.3713318618623995,13
19.90331721953659,-0.45778553482619533,13
19.913318886481083,-0.5129426305683834,13
19.923320553425572,-0.5984878577651993,13
19.933322220370062,-0.6543478006730237,13
19.943323887314552,-0.6979850672120338,13
19.953325554259045,-0.7453487976085933,13
19.963327221203535,-0.7788716553928464,13
19.973328888148025,-0.7800406241409175,13
19.983330555092515,-0.7817337995267641,13
19.993332222037008,-0.7312487395584646,13
20.003333888981498,-0.7196264170126789,13
20.013335555925988,-0.6877831756490452,13
20.02333722287048,-0.5955733398276133,13
20.03333888981497,-0.5395270627526082,13
20.04334055675946,-0.4284651269041164,13
20.05334222370395,-0.3456433889847402,13
20.063343890648444,-0.22405930664163248,13
20.073345557592933,-0.1252981228826729,13
20.083347224537423,0.03044166934505222,13
20.093348891481913,0.14064314254192292,13
20.103350558426406,0.25047312845721564,13
20.113352225370896,0.3476419743596298,13
20.123353892315386,0.45970439359384874,13
20.133355559259876,0.5610773035494796,13
20.14335722620437,0.6192100813626698,13
20.15335889314886,0.6796738302561784,13
20.16336056009335,0.7490109316894097,13
20.173362227037842,0.76012410463485,13
20.18336389398233,0.792940547842543,13
20.19336556092682,0.7820678940404214,13
20.20336722787131,0.7545526144945736,13
20.213368894815805,0.7130199418509128,13
20.223370561760294,0.6949596276500287,13
20.233372228704784,0.6184992709232786,13
20.243373895649274,0.5609934355628086,13
20.253375562593767,0.50900525521577,13
20.263377229538257,0.43182135788576326,13
20.273378896482747,0.3629420337299799,13
20.28338056342724,0.3084146611449288,13
20.29338223037173,0.24373235162247472,13
20.30338389731622,0.18774801151601558,13
20.31338556426071,0.13163069689686901,13
20.323387231205203,0.10970583623523333,13
20.333388898149693,0.0666377020019872,13
20.343390565094182,0.05263130516983438,13
20.353392232038672,0.020772661842429246,13
20.363393898983166,-0.014527051853919913,13
20.373395565927655,0.006470102854884609,13
20.383397232872145,0.011900419425761947,13
20.39339889981664,-0.008899630763808324,13
20.40340056676113,-0.0006951602206225627,13
20.413402233705618,-0.01633671916870775,13
20.423403900650108,-0.010802490005413553,13
20.4334055675946,-0.005006343296979956,13
20.44340723453909,-0.024045271724888583,13
20.45340890148358,-0.05470570778905254,13
20.46341056842807,-0.06819954488149743,13
20.473412235372564,-0.11700251252578546,13
20.483413902317054,-0.17603615929519273,13
20.493415569261543,-0.21724429813827528,13
20.503417236206037,-0.28101911710446514,13
20.513418903150527,-0.3379205803850086,13
20.523420570095016,-0.40752841619243113,13
20.533422237039506,-0.47191279256519675,13
20.543423903984,-0.550133456785423,13
20.55342557092849,-0.6178856470832248,13
20.56342723787298,-0.6791045295961644,13
20.57342890481747,-0.692597256384045,13
20.583430571761962,-0.7439895170441092,13
20.593432238706452,-0.7732512068746391,13
20.60343390565094,-0.7682375295851489,13
20.613435572595435,-0.7567567028337536,13
20.623437239539925,-0.7490112731757778,13
20.633438906484415,-0.7077261561214353,13
20.643440573428904,-0.6573641892796072,13
20.653442240373398,-0.5847456558780049,13
20.663443907317887,-0.5061961518438861,13
20.673445574262377,-0.40101594989057165,13
20.683447241206867,-0.2857486119722489,13
20.69344890815136,-0.19419593019578643,13
20.70345057509585,-0.07599908218056944,13
20.71345224204034,0.044653812389898156,13
20.723453908984833,0.1692807192383725,13
20.733455575929323,0.2884572172210647,13
20.743457242873813,0.38289159400935663,13
20.753458909818303,0.48326903305702135,13
20.763460576762796,0.5703294092106312,13
20.773462243707286,0.635170614900752,13
20.783463910651776,0.6925883531928202,13
20.793465577596265,0.7512889502123303,13
20.80346724454076,0.7680848424448082,13
20.81346891148525,0.7659489600601187,13
20.82347057842974,0.7848496336807284,13
20.83347224537423,0.7632139695465545,13
20.84347391231872,0.7162537921039271,13
20.85347557926321,0.6642488379881104,13
20.8634772462077,0.6180158176627459,13
20.873478913152194,0.5653527751629734,13
20.883480580096684,0.48786545063541076,13
20.893482247041174,0.42850645079572636,13
20.903483913985664,0.346211919218345,13
20.913485580930157,0.29290996747435916,13
20.923487247874647,0.22000536284401068,13
20.933488914819137,0.1925302254511096,13
20.943490581763626,0.14110811537261944,13
20.95349224870812,0.10123205546290562,13
20.96349391565261,0.06535144974484977,13
20.9734955825971,0.03218433552289731,13
20.983497249541593,0.026184944600804366,13
20.993498916486082,0.01054229280589484,13
21.003500583430572,-0.009470247074292311,13
21.013502250375062,-0.02325538046547991,13
21.023503917319555,-0.003981362793740762,13
21.033505584264045,0.010986702429849962,13
21.043507251208535,-0.02133352828921912,13
21.053508918153025,0.0027178902154285645,13
21.063510585097518,-0.006913881088096582,13
21.073512252042008,-0.041369403724816116,13
21.083513918986498,-0.053900461534569746,13
21.09351558593099,-0.10369174421808124,13
21.10351725287548,-0.15927534952014444,13
21.11351891981997,-0.1640910645297616,13
21.12352058676446,-0.23796817445015297,13
21.133522253708954,-0.3022955055684048,13
21.143523920653443,-0.3711894218717521,13
21.153525587597933,-0.4289950878194379,13
21.163527254542423,-0.49434540687178763,13
21.173528921486916,-0.5525861259110793,13
21.183530588431406,-0.6360859420819427,13
21.193532255375896,-0.6701540266335045,13
21.20353392232039,-0.7175284821925042,13
21.21353558926488,-0.7483441190975715,13
21.22353725620937,-0.7709026984437868,13
21.23353892315386,-0.7955085056742038,13
21.243540590098352,-0.7676283882887303,13
21.25354225704284,-0.7307583437422808,13
21.26354392398733,-0.6988107988650819,13
21.27354559093182,-0.6400187255683526,13
21.283547257876315,-0.5910716288816428,13
21.293548924820804,-0.47376957325015767,13
21.303550591765294,-0.37381305973815065,13
21.313552258709787,-0.25518687704276777,13
21.323553925654277,-0.13933143990819546,13
21.333555592598767,-0.041918031226186904,13
21.343557259543257,0.0885657640715998,13
21.35355892648775,0.20044386377181064,13
21.36356059343224,0.30527629368924464,13
21.37356226037673,0.4282462179954139,13
21.38356392732122,0.5364000071802005,13
21.393565594265713,0.5803511897267272,13
21.403567261210203,0.678364884466804,13
21.413568928154692,0.7137019541432466,13
21.423570595099186,0.7554265387219411,13
21.433572262043675,0.7715865721848557,13
21.443573928988165,0.7745601619815498,13
21.453575595932655,0.7526867658615634,13
21.46357726287715,0.7478332686821942,13
21.473578929821638,0.7055922718026342,13
21.483580596766128,0.6405023977891142,13
21.493582263710618,0.5983473660081291,13
21.50358393065511,0.5486128477956806,13
21.5135855975996,0.4866342177464202,13
21.52358726454409,0.4010775175192853,13
21.533588931488584,0.338183250397954,13
21.543590598433074,0.25788283443485077,13
21.553592265377564,0.20003905124466492,13
21.563593932322053,0.16170487904123604,13
21.573595599266547,0.13728272840690542,13
21.583597266211036,0.08135500037911739,13
21.593598933155526,0.05618943685949874,13
21.603600600100016,0.03764113928555904,13
21.61360226704451,0.020064411555662715,13
21.623603933989,0.009100304589220641,13
21.63360560093349,-0.011633086064827547,13
21.64360726787798,-0.0006387569849016149,13
21.653608934822472,-0.007183450065827278,13
21.663610601766962,-0.002955659112519699,13
21.67361226871145,-0.01659277532592919,13
21.683613935655945,-0.028469027800432173,13
21.693615602600435,-0.02190408845411694,13
21.703617269544925,-0.021173155219558006,13
21.713618936489414,-0.059551901319702547,13
21.723620603433908,-0.09912663166269278,13
21.733622270378397,-0.14209834018915962,13
21.743623937322887,-0.1872950005785097,13
21.753625604267377,-0.253435577020929,13
21.76362727121187,-0.28523213462959535,13
21.77362893815636,-0.36374877333550254,13
21.78363060510085,-0.4387024807972868,13
21.793632272045343,-0.5027923569140339,13
21.803633938989833,-0.572621444563908,13
21.813635605934323,-0.6356799627212373,13
21.823637272878813,-0.693370335792465,13
21.833638939823306,-0.7157723730564173,13
21.843640606767796,-0.7468791313197526,13
21.853642273712286,-0.7610252479458344,13
21.863643940656775,-0.771356659629621,13
21.87364560760127,-0.7538537447480108,13
21.88364727454576,-0.7235499615527247,13
21.893648941490248,-0.7009533551328366,13
21.90365060843474,-0.6366142556965824,13
21.91365227537923,-0.5380255747515137,13
21.92365394232372,-0.4545027188249932,13
21.93365560926821,-0.3465768450701389,13
21.943657276212704,-0.24893709219459415,13
21.953658943157194,-0.14200863688667462,13
21.963660610101684,-0.011595592907242172,13
21.973662277046174,0.10422215164531115,13
21.983663943990667,0.2173887470912325,13
21.993665610935157,0.33897070405100344,13
22.003667277879646,0.44930723559172314,13
22.01366894482414,0.5402244716886978,13
22.02367061176863,0.6119972014583875,13
22.03367227871312,0.6848871043440926,13
22.04367394565761,0.7147808382188848,13
22.053675612602103,0.7484894024030584,13
22.063677279546592,0.7818537133103058,13
22.073678946491082,0.7823359834754444,13
22.083680613435572,0.7571984838675178,13
22.093682280380065,0.7349687003359833,13
22.103683947324555,0.6942449960158521,13
22.113685614269045,0.6490543144670136,13
22.123687281213538,0.5808374565563326,13
22.133688948158028,0.5266546081392836,13
22.143690615102518,0.45037442255642424,13
22.153692282047007,0.38374552309659365,13
22.1636939489915,0.3233525784865782,13
22.17369561593599,0.24693556235850278,13
22.18369728288048,0.1981322995943646,13
22.19369894982497,0.14874837529145296,13
22.203700616769463,0.12942587410886164,13
22.213702283713953,0.06754789333494199,13
22.223703950658443,0.028057471221680664,13
22.233705617602936,0.026105756850088615,13
22.243707284547426,0.02307167760302109,13
22.253708951491916,0.014727679806477292,13
22.263710618436406,-0.010913228740782776,13
22.2737122853809,0.008487284770469653,13
22.28371395232539,-0.01587988836103778,13
22.29371561926988,0.01077208675821087,13
22.30371728621437,0.002927752954058941,13
22.313718953158862,-0.025276972315544394,13
22.32372062010335,-0.01990033900132559,13
22.33372228704784,-0.050334270868388514,13
22.34372395399233,-0.08031702917580491,13
22.353725620936824,-0.1126242656472771,13
22.363727287881314,-0.14783312043781466,13
22.373728954825804,-0.2181703251099549,13
22.383730621770297,-0.2590210092850772,13
22.393732288714787,-0.3115050892354554,13
22.403733955659277,-0.3923392037927129,13
22.413735622603767,-0.4662677725300456,13
22.42373728954826,-0.5350765738593001,13
22.43373895649275,-0.6122758829848827,13
22.44374062343724,-0.6409124431136314,13
22.45374229038173,-0.7007139453797782,13
22.463743957326223,-0.7297557118257711,13
22.473745624270713,-0.7599535341341425,13
22.483747291215202,-0.7752516309687595,13
22.493748958159696,-0.789449266124157,13
22.503750625104185,-0.7706936484800399,13
22.513752292048675,-0.7298306478404756,13
22.523753958993165,-0.6844782436056078,13
22.53375562593766,-0.6224475529927805,13
22.543757292882148,-0.5400183731018716,13
22.553758959826638,-0.40894464028682026,13
22.563760626771128,-0.33762907407975634,13
22.57376229371562,-0.2281289204971748,13
22.58376396066011,-0.11815952457191564,13
22.5937656276046,0.0289016167434243,13
22.603767294549094,0.13723435790127597,13
22.613768961493584,0.2514643009088045,13
22.623770628438074,0.3727283913134449,13
22.633772295382563,0.44921401198563055,13
22.643773962327057,0.5584619020903304,13
22.653775629271546,0.6291324927471704,13
22.663777296216036,0.7053523192154044,13
22.673778963160526,0.7353535851155762,13
22.68378063010502,0.7576127256109718,13
22.69378229704951,0.7667750083372368,13
22.703783963994,0.7939585416919529,13
22.713785630938492,0.7471557120104517,13
22.723787297882982,0.6983060259458683,13
22.733788964827472,0.676684323861673,13
22.74379063177196,0.6313692796307284,13
22.753792298716455,0.5851887455530885,13
22.763793965660945,0.5271954741380396,13
22.773795632605434,0.4413573119659846,13
22.783797299549924,0.38062423217619756,13
22.793798966494418,0.3094370395269948,13
22.803800633438907,0.26582869306396517,13
22.813802300383397,0.20196746236684024,13
22.82380396732789,0.1402570397288148,13
22.83380563427238,0.0981670409866148,13
22.84380730121687,0.07670299817319026,13
22.85380896816136,0.04364397652288826,13
22.863810635105853,0.03798972407829951,13
22.873812302050343,-0.004486736302960851,13
22.883813968994833,0.011152968466300556,13
22.893815635939323,0.005055807136764923,13
22.903817302883816,-0.003976815847313549,13
22.913818969828306,-0.006102068934370401,13
22.923820636772795,0.000804472112909382,13
22.93382230371729,-0.026885742101222073,13
22.94382397066178,-0.01368201016193141,13
22.95382563760627,-0.03227696252345974,13
22.963827304550758,-0.07023134228259528,13
22.97382897149525,-0.07540481576254511,13
22.98383063843974,-0.1090955456404826,13
22.99383230538423,-0.16648887474725974,13
23.00383397232872,-0.23463345031865418,13
23.013835639273214,-0.2817971875628975,13
23.023837306217704,-0.3562607506673827,13
23.033838973162194,-0.3861490428518548,13
23.043840640106687,-0.47431950034837145,13
23.053842307051177,-0.5451838180725632,13
23.063843973995667,-0.5910962200875061,13
23.073845640940156,-0.6670533982185334,13
23.08384730788465,-0.7139486741370963,13
23.09384897482914,-0.7430432770449602,13
23.10385064177363,-0.7775501906889454,13
23.11385230871812,-0.7989919598506714,13
23.123853975662612,-0.784783896219815,13
23.133855642607102,-0.7464327411488922,13
23.143857309551592,-0.7081609994245844,13
23.153858976496082,-0.6473508493332418,13
23.163860643440575,-0.5827870612157974,13
23.173862310385065,-0.5087375268209594,13
23.183863977329555,-0.40501165441836245,13
23.193865644274048,-0.30540501414416404,13
23.203867311218538,-0.20116252073452837,13
23.213868978163028,-0.06496347955125281,13
23.223870645107517,0.040298327424579033,13
23.23387231205201,0.18072559881606326,13
23.2438739789965,0.2794142869683403,13
23.25387564594099,0.3756064965749422,13
23.26387731288548,0.49958087481288915,13
23.273878979829973,0.5485484843322224,13
23.283880646774463,0.6368773930156262,13
23.293882313718953,0.6929327443201841,13
23.303883980663446,0.7629799814056909,13
23.313885647607936,0.7580321304795389,13
23.323887314552426,0.77724222570572,13
23.333888981496916,0.7936867224705452,13
23.34389064844141,0.7621904800355266,13
23.3538923153859,0.7214455795149436,13
23.36389398233039,0.6596535737289057,13
23.37389564927488,0.6082787070492631,13
23.38389731621937,0.5368474473648197,13
23.39389898316386,0.5042424333864944,13
23.40390065010835,0.42713299261328,13
23.413902317052845,0.36556455681744393,13
23.423903983997334,0.28874557110232113,13
23.433905650941824,0.23846684976190016,13
23.443907317886314,0.17940190673080825,13
23.453908984830807,0.13513590731128536,13
23.463910651775297,0.08185663595193728,13
23.473912318719787,0.05844302127680069,13
23.483913985664277,0.037330081525307,13
23.49391565260877,0.02824977622083255,13
23.50391731955326,0.00960105669034425,13
23.51391898649775,0.004590152257991533,13
23.523920653442243,-0.002446651658646651,13
23.533922320386733,-0.010968840938039313,13
23.543923987331222,-0.005094094799962083,13
23.553925654275712,-0.0051187604578532666,13
23.563927321220206,-0.014143664395699869,13
23.573928988164695,-0.03288448518250394,13
23.583930655109185,-0.040530570780775974,13
23.593932322053675,-0.06083652926355908,13
23.60393398899817,-0.09370194615831542,13
23.613935655942658,-0.13558435433277624,13
23.623937322887148,-0.16868009780557003,13
23.63393898983164,-0.2410260639803954,13
23.64394065677613,-0.2980722056852604,13
23.65394232372062,-0.3683891934137754,13
23.66394399066511,-0.4207159774887708,13
23.673945657609604,-0.5089635641436403,13
23.683947324554094,-0.5574326366845429,13
23.693948991498583,-0.6469673335118888,13
23.703950658443073,-0.6800585179517413,13
23.713952325387567,-0.7339158425832495,13
23.723953992332056,-0.7601172000360884,13
23.733955659276546,-0.7817901334110305,13
23.74395732622104,-0.7820713216242815,13
23.75395899316553,-0.7925527587777474,13
23.76396066011002,-0.7637791170995368,13
23.77396232705451,-0.7004479876210086,13
23.783963993999002,-0.6431654236082929,13
23.793965660943492,-0.5588788057877017,13
23.80396732788798,-0.462894815555246,13
23.81396899483247,-0.37765904376137405,13
23.823970661776965,-0.2755367249652965,13
23.833972328721455,-0.1632027634121113,13
23.843973995665944,-0.045194288540165564,13
23.853975662610434,0.06906880667949392,13
23.863977329554928,0.17554907245729964,13
23.873978996499417,0.29918672876828384,13
23.883980663443907,0.4238932018096891,13
23.8939823303884,0.5053143960434778,13
23.90398399733289,0.5938713984268237,13
23.91398566427738,0.6825738921996256,13
23.92398733122187,0.7061399597006086,13
23.933988998166363,0.7433672454442314,13
23.943990665110853,0.777734190021843,13
23.953992332055343,0.7686348878001577,13
23.963993998999833,0.771065226310353,13
23.973995665944326,0.7388032807681287,13
23.983997332888816,0.7084238376839642,13
23.993998999833305,0.6618334950574783,13
24.0040006667778,0.6100053917097201,13
24.01400233372229,0.5349378975908006,13
24.02400400066678,0.49142926664524006,13
24.034005667611268,0.405978743805999,13
24.04400733455576,0.34226446565698593,13
24.05400900150025,0.28135778603481587,13
24.06401066844474,0.2262427943739033,13
24.07401233538923,0.1603598489885199,13
24.084014002333724,0.10545299556115559,13
24.094015669278214,0.08583067097178022,13
24.104017336222704,0.056828097147142646,13
24.114019003167197,0.03422822241241855,13
24.124020670111687,0.007252113160154023,13
24.134022337056177,0.01910024267466056,13
24.144024004000666,0.012542980478719172,13
24.15402567094516,0.007040184220572287,13
24.16402733788965,-0.01149776353330988,13
24.17402900483414,-0.004080379597244945,13
24.18403067177863,0.005557658592861132,13
24.194032338723122,-0.007243874269131421,13
24.204034005667612,-0.0033791323174949504,13
24.214035672612102,-0.059889697508786796,13
24.224037339556595,-0.04577527876773627,13
24.234039006501085,-0.07694560161186692,13
24.244040673445575,-0.13914056914950027,13
24.254042340390065,-0.1898283677827558,13
24.264044007334558,-0.23716415091189666,13
24.274045674279048,-0.30301711006739523,13
24.284047341223538,-0.3823851914640425,13
24.294049008168027,-0.4431947481808391,13
24.30405067511252,-0.5279667368232991,13
24.31405234205701,-0.5560328452619072,13
24.3240540090015,-0.6411634975730776,13
24.334055675945994,-0.6696627090491439,13
24.344057342890483,-0.7261785657557359,13
24.354059009834973,-0.7703038093392278,13
24.364060676779463,-0.7974691122462322,13
24.374062343723956,-0.7728410788469477,13
24.384064010668446,-0.7597498610928372,13
24.394065677612936,-0.7236928461116138,13
24.404067344557426,-0.6756196386016373,13
24.41406901150192,-0.6397854971381478,13
24.42407067844641,-0.5527644364104208,13
24.4340723453909,-0.47923742876927833,13
24.444074012335392,-0.364810581437675,13
24.45407567927988,-0.24533502409479585,13
24.46407734622437,-0.12749146849850562,13
24.47407901316886,-0.021813518985134818,13
24.484080680113355,0.11661035456003054,13
24.494082347057844,0.24779052213814903,13
24.504084014002334,0.33512992209751935,13
24.514085680946824,0.4656358131129877,13
24.524087347891317,0.5506743253960298,13
24.534089014835807,0.6133606042046534,13
24.544090681780297,0.6704146487903284,13
24.554092348724787,0.7261191962778852,13
24.56409401566928,0.7548396553146264,13
24.57409568261377,0.7793729206125788,13
24.58409734955826,0.7613390078243542,13
24.594099016502753,0.7520983386448972,13
24.604100683447243,0.72113300959972,13
24.614102350391732,0.6966188767391434,13
24.624104017336222,0.6450657138116296,13
24.634105684280716,0.5794105120886253,13
24.644107351225205,0.5165074677863424,13
24.654109018169695,0.4599140515058143,13
24.664110685114185,0.3928096321989712,13
24.67411235205868,0.3155203812299306,13
24.684114019003168,0.251303989214061,13
24.694115685947658,0.20279886731249286,13
24.70411735289215,0.133080497932667,13
24.71411901983664,0.10261203940266797,13
24.72412068678113,0.06543586952603625,13
24.73412235372562,0.02609297029071804,13
24.744124020670114,0.0438363920171161,13
24.754125687614604,0.02416851509921196,13
24.764127354559093,0.018714803048682078,13
24.774129021503583,-0.00714645653196606,13
24.784130688448077,0.021695081030467613,13
24.794132355392566,-0.006149292230211727,13
24.804134022337056,-0.017276879262603236,13
24.81413568928155,-0.007345603749621635,13
24.82413735622604,-0.004940810848617198,13
24.83413902317053,-0.0271954086346163,13
24.84414069011502,-0.04697459486618299,13
24.854142357059512,-0.08448846629679654,13
24.864144024004002,-0.11689170809954483,13
24.87414569094849,-0.13984748413193213,13
24.88414735789298,-0.20959148940140074,13
24.894149024837475,-0.2693514493363343,13
24.904150691781965,-0.3339888201821227,13
24.914152358726454,-0.40670905874422053,13
24.924154025670948,-0.462246428683213,13
24.934155692615438,-0.5258145296511907,13
24.944157359559927,-0.5958006987852846,13
24.954159026504417,-0.6455588713044096,13
24.96416069344891,-0.688139685906438,13
24.9741623603934,-0.7483424421493191,13
24.98416402733789,-0.7614108511736155,13
24.99416569428238,-0.7911038451493345,13
25.004167361226873,-0.7885298780817264,13
25.014169028171363,-0.7781244501002427,13
25.024170695115853,-0.7242546505456952,13
25.034172362060346,-0.666097077460661,13
25.044174029004836,-0.6202676800297532,13
25.054175695949326,-0.516657672697934,13
25.064177362893815,-0.41949082970854146,13
25.07417902983831,-0.35005107825948034,13
25.0841806967828,-0.22088054330003248,13
25.09418236372729,-0.11568575554128106,13
25.104184030671778,0.011272446851230262,13
25.11418569761627,0.15002982380012952,13
25.12418736456076,0.2642588376208564,13
25.13418903150525,0.3528272956857911,13
25.144190698449744,0.4524695666055521,13
25.154192365394234,0.5590965978087983,13
25.164194032338724,0.6340897458179986,13
25.174195699283214,0.6734774046075052,13
25.184197366227707,0.7512081751050712,13
25.194199033172197,0.7637359521949452,13
25.204200700116687,0.7813339219518151,13
25.214202367061176,0.7767320877777636,13
25.22420403400567,0.7497657404403675,13
25.23420570095016,0.703985430208729,13
25.24420736789465,0.6829759504167361,13
25.25420903483914,0.6291098035430989,13
25.264210701783632,0.5905516504557901,13
25.274212368728122,0.49513907187981265,13
25.284214035672612,0.42486964249080594,13
25.294215702617105,0.37179998358895244,13
25.304217369561595,0.3044562117432855,13
25.314219036506085,0.234025635580702,13
25.324220703450575,0.15616702626233947,13
25.334222370395068,0.13365934117458841,13
25.344224037339558,0.10860982920823106,13
25.354225704284048,0.06233323387094356,13
25.364227371228537,0.02883300154716153,13
25.37422903817303,0.014547991143085082,13
25.38423070511752,0.013198567323891658,13
25.39423237206201,0.004445633505515458,13
25.404234039006504,-0.0171528715973109,13
25.414235705950993,-0.0095874719393287,13
25.424237372895483,0.004165489200720951,13
25.434239039839973,0.004560720481809163,13
25.444240706784466,-0.012242465988219464,13
25.454242373728956,-0.03246618842598942,13
25.464244040673446,-0.0395618814767011,13
25.474245707617936,-0.06545049723246539,13
25.48424737456243,-0.08327395529326778,13
25.49424904150692,-0.1283432091396046,13
25.50425070845141,-0.14679895198896756,13
25.514252375395902,-0.22364810303840343,13
25.52425404234039,-0.2736761569764719,13
25.53425570928488,-0.3366862009665152,13
25.54425737622937,-0.41926590873355346,13
25.554259043173865,-0.47672457444344,13
25.564260710118354,-0.5485525329446255,13
25.574262377062844,-0.5967322943164767,13
25.584264044007334,-0.6506118106488035,13
25.594265710951827,-0.7063663349388397,13
25.604267377896317,-0.731500853332207,13
25.614269044840807,-0.7647205334004806,13
25.6242707117853,-0.7839099585781862,13
25.63427237872979,-0.7734424031519189,13
25.64427404567428,-0.7682613800875043,13
25.65427571261877,-0.7353065949851347,13
25.664277379563263,-0.6648113379865609,13
25.674279046507753,-0.5753189631952834,13
25.684280713452242,-0.5065578807511768,13
25.694282380396732,-0.4036847678653111,13
25.704284047341226,-0.3064564242141913,13
25.714285714285715,-0.18548643847392499,13
25.724287381230205,-0.05775015408676078,13
25.7342890481747,0.0485623162103846,13
25.744290715119188,0.16960773296362636,13
25.754292382063678,0.29425798639635004,13
25.764294049008168,0.4132560178135729,13
25.77429571595266,0.4756764484591322,13
25.78429738289715,0.5733311234005988,13
25.79429904984164,0.6367307378748313,13
25.80430071678613,0.6990891613067686,13
25.814302383730624,0.7555504518054834,13
25.824304050675114,0.7698113170321812,13
25.834305717619603,0.7857040015422604,13
25.844307384564097,0.7658904295212596,13
25.854309051508586,0.7607086126336334,13
25.864310718453076,0.7082847232821111,13
25.874312385397566,0.6658382600839762,13
25.88431405234206,0.6162003031269827,13
25.89431571928655,0.5578553482387563,13
25.90431738623104,0.48229066368406226,13
25.91431905317553,0.4225207742193598,13
25.924320720120022,0.34954697646602617,13
25.934322387064512,0.29459860460089954,13
25.944324054009,0.2288684412831215,13
25.954325720953495,0.16357805620884958,13
25.964327387897985,0.13487303259907382,13
25.974329054842475,0.08446477900915844,13
25.984330721786964,0.04044870265700214,13
25.994332388731458,0.03995147030966392,13
26.004334055675947,0.017356996208860324,13
26.014335722620437,-0.017952133436614517,13
26.024337389564927,0.008169705358861717,13
26.03433905650942,0.003066777230463193,13
26.04434072345391,-0.015789296273324576,13
26.0543423903984,-0.0059290142922544,13
26.06434405734289,0.0017954358017576583,13
26.074345724287383,0.014391624428360502,13
26.084347391231873,-0.03078173943199347,13
26.094349058176363,-0.028299589610435508,13
26.104350725120856,-0.05601244335953584,13
26.114352392065346,-0.10041848101371045,13
26.124354059009836,-0.14239948647113995,13
26.134355725954325,-0.17844853344951328,13
26.14435739289882,-0.2548170183475817,13
26.15435905984331,-0.28353883358792964,13
26.1643607267878,-0.34405238389893844,13
26.174362393732288,-0.4234249541027957,13
26.18436406067678,-0.4925802102543181,13
26.19436572762127,-0.5627054008824688,13
26.20436739456576,-0.6257575154216201,13
26.214369061510254,-0.6601977078864506,13
26.224370728454744,-0.7227110117069064,13
26.234372395399234,-0.7543023308412198,13
26.244374062343724,-0.778236055655289,13
26.254375729288217,-0.8033780426649604,13
26.264377396232707,-0.7644633776261912,13
26.274379063177197,-0.7519827241929162,13
26.284380730121686,-0.6864985240751506,13
26.29438239706618,-0.657150703265586,13
26.30438406401067,-0.5748926953652149,13
26.31438573095516,-0.4842197602729518,13
26.324387397899653,-0.37490391606576207,13
26.334389064844142,-0.26999839840171197,13
26.344390731788632,-0.15705081983902897,13
26.354392398733122,-0.043841004565222344,13
26.364394065677615,0.08793761721366564,13
26.374395732622105,0.2028876856407921,13
26.384397399566595,0.3105711150409715,13
26.394399066511085,0.42676602178487877,13
26.404400733455578,0.5346144529074457,13
26.414402400400068,0.5932167890751786,13
26.424404067344557,0.6584564101880839,13
26.43440573428905,0.709074061316338,13
26.44440740123354,0.7369472265457923,13
26.45440906817803,0.7772775877446797,13
26.46441073512252,0.7673712894679223,13
26.474412402067014,0.7636741012385987,13
26.484414069011503,0.7519067447503968,13
26.494415735955993,0.7123936475614261,13
26.504417402900483,0.6681828582457081,13
26.514419069844976,0.5916842702232752,13
26.524420736789466,0.5274582365149176,13
26.534422403733956,0.44520879884817455,13
26.54442407067845,0.3948281272118185,13
26.55442573762294,0.3390102377213871,13
26.56442740456743,0.2692313364811547,13
26.57442907151192,0.22272502343083617,13
26.584430738456412,0.15444524700946172,13
26.5944324054009,0.1267861120010291,13
26.60443407234539,0.08774845467574872,13
26.61443573928988,0.050682016410967604,13
26.624437406234374,0.03472116738735127,13
26.634439073178864,-0.008506612747000916,13
26.644440740123354,0.01368483061757278,13
26.654442407067847,0.01470467076158831,13
26.664444074012337,0.011740863922710166,13
26.674445740956827,0.0007047541431101063,13
26.684447407901317,0.006391682114712601,13
26.69444907484581,-0.022135624689230818,13
26.7044507417903,-0.009398179755366352,13
26.71445240873479,-0.028262582681185106,13
26.72445407567928,-0.026064359457608377,13
26.734455742623773,-0.06782479049580785,13
26.744457409568263,-0.11313453581996352,13
26.754459076512752,-0.1616992756427042,13
26.764460743457242,-0.1962607241766433,13
26.774462410401735,-0.26549655977335707,13
26.784464077346225,-0.3083917947647695,13
26.794465744290715,-0.382286972916149,13
26.80446741123521,-0.4276685870471517,13
26.814469078179698,-0.49189690332248726,13
26.824470745124188,-0.5848952822136705,13
26.834472412068678,-0.6466059941373123,13
26.84447407901317,-0.6820055688984392,13
26.85447574595766,-0.73293396231153,13
26.86447741290215,-0.7690468636644333,13
26.87447907984664,-0.7995380454825567,13
26.884480746791134,-0.7773034406898253,13
26.894482413735624,-0.7513259326760399,13
26.904484080680113,-0.7382317425900728,13
26.914485747624607,-0.6874839820072977,13
26.924487414569096,-0.6101300182130904,13
26.934489081513586,-0.5602705645440497,13
26.944490748458076,-0.44438295679625406,13
26.95449241540257,-0.3398885869129953,13
26.96449408234706,-0.21882283033943717,13
26.97449574929155,-0.11512712349258594,13
26.98449741623604,-0.006723880095672351,13
26.994499083180532,0.1056976756291547,13
27.004500750125022,0.22224193475289164,13
27.01450241706951,0.34814846693053064,13
27.024504084014005,0.4531224234530194,13
27.034505750958495,0.5317128964549139,13
27.044507417902985,0.6355407740049321,13
27.054509084847474,0.6757099163271327,13
27.064510751791968,0.7279875316110616,13
27.074512418736457,0.7487780760966594,13
27.084514085680947,0.7707686694506619,13
27.094515752625437,0.781918173119467,13
27.10451741956993,0.736693151718583,13
27.11451908651442,0.7304843841789687,13
27.12452075345891,0.6844205782449195,13
27.134522420403403,0.6510684537348906,13
27.144524087347893,0.5898691658436959,13
27.154525754292383,0.5148715653000558,13
27.164527421236873,0.4566664992276453,13
27.174529088181366,0.3807727216860835,13
27.184530755125856,0.3059008112292524,13
27.194532422070345,0.278562141076491,13
27.204534089014835,0.1917050900532368,13
27.21453575595933,0.1634534383718783,13
27.22453742290382,0.10692671068841816,13
27.234539089848308,0.08259982725409165,13
27.2445407567928,0.04284143044508799,13
27.25454242373729,0.034144571279543394,13
27.26454409068178,0.009261475143392381,13
27.27454575762627,-0.004363284781128511,13
27.284547424570764,-0.001687160796947246,13
27.294549091515254,0.003945088315792283,13
27.304550758459744,0.01585082876142273,13
27.314552425404234,0.0022807984648012566,13
27.324554092348727,0.007412195144219773,13
27.334555759293217,-4.403405266018533e-05,13
27.344557426237706,-0.03996087626248602,13
27.3545590931822,-0.051004948706187145,13
27.36456076012669,-0.07928560537183532,13
27.37456242707118,-0.10861041498932275,13
27.38456409401567,-0.13363511890741653,13
27.394565760960162,-0.20040510102557615,13
27.404567427904652,-0.2826676884793114,13
27.414569094849142,-0.34191649867467216,13
27.424570761793632,-0.38809067982013346,13
27.434572428738125,-0.456031179631374,13
27.444574095682615,-0.5321872583742087,13
27.454575762627105,-0.604713876756369,13
27.464577429571595,-0.6531739981752599,13
27.474579096516088,-0.6964455369234289,13
27.484580763460578,-0.7319761864504178,13
27.494582430405067,-0.7351053422890689,13
27.50458409734956,-0.7898958541748623,13
27.51458576429405,-0.7726341539369136,13
27.52458743123854,-0.7574853861137161,13
27.53458909818303,-0.7366480708731473,13
27.544590765127523,-0.661506564775467,13
27.554592432072013,-0.6074798298172074,13
27.564594099016503,-0.5179378003739111,13
27.574595765960993,-0.4305298780777428,13
27.584597432905486,-0.32075228697094615,13
27.594599099849976,-0.20416435334254251,13
27.604600766794466,-0.08213649545153325,13
27.61460243373896,0.01919309499904054,13
27.62460410068345,0.14842120457434133,13
27.63460576762794,0.25982990012358953,13
27.64460743457243,0.3784003829114912,13
27.65460910151692,0.47404586443398683,13
27.66461076846141,0.5618734380876602,13
27.6746124354059,0.6276774205197242,13
27.68461410235039,0.6741598212439596,13
27.694615769294884,0.7476198562163172,13
27.704617436239374,0.7708443285406124,13
27.714619103183864,0.7843452205023573,13
27.724620770128357,0.7813778510326196,13
27.734622437072847,0.7471991614256626,13
27.744624104017337,0.7357288174834994,13
27.754625770961827,0.6661297162057868,13
27.76462743790632,0.640902737084853,13
27.77462910485081,0.5683907860056097,13
27.7846307717953,0.49411829024596077,13
27.79463243873979,0.4444066746802844,13
27.804634105684283,0.37033742063124864,13
27.814635772628773,0.3181063874290181,13
27.824637439573262,0.2341941665602274,13
27.834639106517756,0.1842871662298512,13
27.844640773462245,0.1432931129588413,13
27.854642440406735,0.09178604737897249,13
27.864644107351225,0.05939943010202309,13
27.87464577429572,0.03968051928347497,13
27.884647441240208,0.04794155005766963,13
27.894649108184698,0.014300176912667802,13
27.904650775129188,0.009635620259408943,13
27.91465244207368,0.01286507432062195,13
27.92465410901817,-0.006963652150127952,13
27.93465577596266,0.017677982258318525,13
27.944657442907154,0.019770433617233622,13
27.954659109851644,-0.013858740364894893,13
27.964660776796133,-0.0323224747292082,13
27.974662443740623,-0.03170317235290436,13
27.984664110685117,-0.04958472080107488,13
27.994665777629606,-0.07762819375063335,13
28.004667444574096,-0.1333790810172111,13
28.014669111518586,-0.15569199768849434,13
28.02467077846308,-0.22531364967113096,13
28.03467244540757,-0.29560201192026037,13
28.04467411235206,-0.33616405649782843,13
28.054675779296552,-0.4149178863179842,13
28.064677446241042,-0.47911266712256617,13
28.07467911318553,-0.5526331470891055,13
28.08468078013002,-0.5958952005776187,13
28.094682447074515,-0.6604418225656399,13
28.104684114019005,-0.7237205654328277,13
28.114685780963494,-0.7478985208463222,13
28.124687447907984,-0.7731032020364416,13
28.134689114852478,-0.7898642698498008,13
28.144690781796967,-0.7561122364476619,13
28.154692448741457,-0.7677375282597805,13
28.164694115685947,-0.7074040340993064,13
28.17469578263044,-0.6442599482537898,13
28.18469744957493,-0.5853806864435928,13
