time,ppg_signal,subject_id
0.0,-0.006505704843570877,14
0.010001666944490749,0.10723027934827362,14
0.020003333888981498,0.22230287738001675,14
0.030005000833472247,0.33178463650242446,14
0.040006667777962995,0.425044230884425,14
0.050008334722453744,0.506579483223348,14
0.06001000166694449,0.5673916885665826,14
0.07001166861143523,0.6446914276313067,14
0.08001333555592599,0.6962051680045217,14
0.09001500250041675,0.7387729415141435,14
0.10001666944490749,0.767135254121867,14
0.11001833638939823,0.7737326224343104,14
0.12002000333388899,0.7771254647387974,14
0.13002167027837974,0.7519632047655775,14
0.14002333722287047,0.7547179137781607,14
0.15002500416736123,0.7038171801686757,14
0.16002667111185198,0.6671942092219789,14
0.17002833805634274,0.6317954487877113,14
0.1800300050008335,0.533590652975654,14
0.19003167194532422,0.4769494177614547,14
0.20003333888981498,0.41102591950235556,14
0.21003500583430573,0.3610209350318517,14
0.22003667277879646,0.29283008062565274,14
0.23003833972328722,0.23093504841615223,14
0.24004000666777797,0.20246738162210523,14
0.2500416736122687,0.15687707757238173,14
0.2600433405567595,0.11755259177717839,14
0.2700450075012502,0.06529574602431021,14
0.28004667444574094,0.03662681084103343,14
0.2900483413902317,0.033207441705868035,14
0.30005000833472245,0.021114897741690918,14
0.31005167527921323,0.005209038685116709,14
0.32005334222370396,0.00010144614102468611,14
0.3300550091681947,-0.007464105188011473,14
0.3400566761126855,0.010973629301150013,14
0.3500583430571762,0.012103975239477933,14
0.360060010001667,0.0003900276829376329,14
0.3700616769461577,0.0062941874693188925,14
0.38006334389064844,-0.003143918169386306,14
0.3900650108351392,-0.014495118026954596,14
0.40006667777962995,-0.042781637233896434,14
0.4100683447241207,-0.06255788471672412,14
0.42007001166861146,-0.10189637082447085,14
0.4300716786131022,-0.1280580234556795,14
0.4400733455575929,-0.17823383021822084,14
0.4500750125020837,-0.20980266751133972,14
0.46007667944657443,-0.2660191156098696,14
0.4700783463910652,-0.3175715868863486,14
0.48008001333555594,-0.3902145774851773,14
0.49008168028004667,-0.4481068184549348,14
0.5000833472245374,-0.5221032393666508,14
0.5100850141690282,-0.5780405180589088,14
0.520086681113519,-0.6375107047437796,14
0.5300883480580096,-0.6807613616587613,14
0.5400900150025004,-0.7164544786953637,14
0.5500916819469912,-0.7512562465349335,14
0.5600933488914819,-0.7579409298539702,14
0.5700950158359727,-0.7865450864945881,14
0.5800966827804634,-0.7814938281552243,14
0.5900983497249542,-0.7703968121875251,14
0.6001000166694449,-0.7190522174910802,14
0.6101016836139357,-0.6519613724460456,14
0.6201033505584265,-0.6245336862038445,14
0.6301050175029171,-0.5605251969473959,14
0.6401066844474079,-0.4744354730354462,14
0.6501083513918987,-0.38661843434422777,14
0.6601100183363894,-0.294059843571359,14
0.6701116852808802,-0.18928008132649599,14
0.680113352225371,-0.10141207324097956,14
0.6901150191698616,0.025234589395059952,14
0.7001166861143524,0.1402917658860545,14
0.7101183530588432,0.24772615130679554,14
0.720120020003334,0.3475841824539319,14
0.7301216869478246,0.4547784456843164,14
0.7401233538923154,0.5446504102298317,14
0.7501250208368062,0.6019557937769175,14
0.7601266877812969,0.660988596531723,14
0.7701283547257877,0.7295508959402032,14
0.7801300216702785,0.7315815851082814,14
0.7901316886147691,0.7772183955141904,14
0.8001333555592599,0.7710865021575374,14
0.8101350225037507,0.7776425770464003,14
0.8201366894482414,0.7480721923037295,14
0.8301383563927321,0.7543224268902186,14
0.8401400233372229,0.6994532153757437,14
0.8501416902817136,0.6565802323694638,14
0.8601433572262044,0.5891279671329154,14
0.8701450241706952,0.5299115133255207,14
0.8801466911151858,0.4792632702649744,14
0.8901483580596766,0.43127042198381604,14
0.9001500250041674,0.3562381993411313,14
0.9101516919486582,0.30221929684050974,14
0.9201533588931489,0.23114595901601048,14
0.9301550258376396,0.19101938469414262,14
0.9401566927821304,0.14463429137866732,14
0.9501583597266211,0.09942097294219375,14
0.9601600266711119,0.08488300959533991,14
0.9701616936156027,0.03331563563854942,14
0.9801633605600933,0.027390295507446535,14
0.9901650275045841,0.03263462672811904,14
1.0001666944490748,0.008990390938012148,14
1.0101683613935657,0.0063981263562521914,14
1.0201700283380564,0.013836283346707607,14
1.030171695282547,0.000726427390000403,14
1.040173362227038,0.01579517523297106,14
1.0501750291715286,-0.022238241888923538,14
1.0601766961160193,-0.020650811830943812,14
1.0701783630605102,-0.015090864158982167,14
1.0801800300050008,-0.017938926719021246,14
1.0901816969494915,-0.04629738075285496,14
1.1001833638939824,-0.08315623548017217,14
1.110185030838473,-0.09677811660516562,14
1.1201866977829638,-0.13461358684733676,14
1.1301883647274547,-0.1737155279867082,14
1.1401900316719453,-0.22789597603038556,14
1.1501916986164362,-0.29410471450703357,14
1.160193365560927,-0.36000291419538216,14
1.1701950325054176,-0.40578444836409827,14
1.1801966994499085,-0.46815001021171404,14
1.1901983663943991,-0.524577118712721,14
1.2002000333388898,-0.5917202413436682,14
1.2102017002833807,-0.6297466137978738,14
1.2202033672278714,-0.6855999621479787,14
1.230205034172362,-0.7365040199565733,14
1.240206701116853,-0.7712679324768625,14
1.2502083680613436,-0.7572625874911992,14
1.2602100350058343,-0.7814635049031463,14
1.2702117019503252,-0.7697648728969863,14
1.2802133688948159,-0.7508814182824947,14
1.2902150358393065,-0.7146698117654716,14
1.3002167027837974,-0.6705098324940614,14
1.310218369728288,-0.5946720806998628,14
1.3202200366727788,-0.544127017816394,14
1.3302217036172697,-0.46023274607617254,14
1.3402233705617603,-0.3574545119782572,14
1.350225037506251,-0.2543147165010536,14
1.360226704450742,-0.15548164481400617,14
1.3702283713952326,-0.048675628278543236,14
1.3802300383397232,0.0596312764247988,14
1.3902317052842141,0.1792788406517202,14
1.4002333722287048,0.2725530316120212,14
1.4102350391731955,0.384752711160493,14
1.4202367061176864,0.46629320987085354,14
1.430238373062177,0.5327042978548463,14
1.440240040006668,0.6248422741146543,14
1.4502417069511586,0.683322108963593,14
1.4602433738956493,0.7398829089825907,14
1.4702450408401402,0.752020074559945,14
1.4802467077846309,0.7892536145663607,14
1.4902483747291215,0.783913715139449,14
1.5002500416736124,0.7699636213744105,14
1.510251708618103,0.7625060670744761,14
1.5202533755625938,0.7183179689644823,14
1.5302550425070847,0.6810083562423801,14
1.5402567094515753,0.6217066322431355,14
1.550258376396066,0.5494196677091624,14
1.560260043340557,0.5044214428460703,14
1.5702617102850476,0.43898862111157155,14
1.5802633772295382,0.38938021617418467,14
1.5902650441740291,0.34091310528668417,14
1.6002667111185198,0.2729441817608328,14
1.6102683780630105,0.23502343473842666,14
1.6202700450075014,0.16015641176622317,14
1.630271711951992,0.14694218991354555,14
1.6402733788964827,0.08261920957551225,14
1.6502750458409736,0.06432053829772909,14
1.6602767127854643,0.03574753855061497,14
1.670278379729955,0.02246915842782826,14
1.6802800466744459,0.015022896158428688,14
1.6902817136189365,0.019829782907217312,14
1.7002833805634272,-0.00029380548085788244,14
1.710285047507918,0.0022702691402559437,14
1.7202867144524088,-0.0062737628887178185,14
1.7302883813968994,0.006650422362205608,14
1.7402900483413903,0.008657873045655101,14
1.750291715285881,-0.005431245249379874,14
1.7602933822303717,-0.010132833706730026,14
1.7702950491748626,-0.04224903091673344,14
1.7802967161193533,-0.057037854768105745,14
1.7902983830638441,-0.08089583411440636,14
1.8003000500083348,-0.11083489127342118,14
1.8103017169528255,-0.14670665480854328,14
1.8203033838973164,-0.19919844118423166,14
1.830305050841807,-0.2516008350793956,14
1.8403067177862977,-0.3035366300390998,14
1.8503083847307886,-0.35401261962050856,14
1.8603100516752793,-0.41591460329340496,14
1.87031171861977,-0.47901400172553876,14
1.8803133855642609,-0.5164512019179697,14
1.8903150525087515,-0.6140374357103449,14
1.9003167194532422,-0.6475479983418424,14
1.910318386397733,-0.6954628224906683,14
1.9203200533422238,-0.7284216789386309,14
1.9303217202867144,-0.7623304700007637,14
1.9403233872312053,-0.7554410933100658,14
1.950325054175696,-0.795430656629078,14
1.9603267211201867,-0.7641848356177221,14
1.9703283880646776,-0.7521476317041155,14
1.9803300550091683,-0.6839400495432505,14
1.990331721953659,-0.6481582231113268,14
2.0003333888981496,-0.5782901462616181,14
2.0103350558426407,-0.5196604560222913,14
2.0203367227871314,-0.42419779972548505,14
2.030338389731622,-0.3354262074441601,14
2.0403400566761127,-0.2199281410423163,14
2.0503417236206034,-0.1046382250751339,14
2.060343390565094,0.0019333677375448187,14
2.070345057509585,0.10350286542231679,14
2.080346724454076,0.21602003705807465,14
2.0903483913985665,0.3024254884115524,14
2.100350058343057,0.3984177614341051,14
2.110351725287548,0.5082664318427531,14
2.1203533922320386,0.5673737904366478,14
2.1303550591765297,0.6569479669125006,14
2.1403567261210203,0.7092204024408313,14
2.150358393065511,0.7266792689524988,14
2.1603600600100017,0.7537314193964638,14
2.1703617269544924,0.7698979502206738,14
2.180363393898983,0.7941762281524243,14
2.190365060843474,0.7627822126870162,14
2.200366727787965,0.7269050426233997,14
2.2103683947324555,0.7256786792338057,14
2.220370061676946,0.6615671210533435,14
2.230371728621437,0.6031814774002761,14
2.2403733955659275,0.5554988584817866,14
2.2503750625104186,0.5115236570523991,14
2.2603767294549093,0.44156558348078473,14
2.2703783963994,0.37857089933064797,14
2.2803800633438907,0.318552189596215,14
2.2903817302883813,0.26269190657851915,14
2.3003833972328724,0.19517215313096029,14
2.310385064177363,0.16506814243952445,14
2.320386731121854,0.0997427325075545,14
2.3303883980663445,0.07472498861035509,14
2.340390065010835,0.03566680642882886,14
2.350391731955326,0.02000043069163132,14
2.360393398899817,0.01502187099306641,14
2.3703950658443076,0.010867523841089587,14
2.3803967327887983,0.0081646843101631,14
2.390398399733289,-0.01068262780223883,14
2.4004000666777796,-0.0052833318782202696,14
2.4104017336222703,-0.01088690287001252,14
2.4204034005667614,-0.017467747683801074,14
2.430405067511252,-0.012960466794641638,14
2.4404067344557427,-0.013629893165702796,14
2.4504084014002334,-0.016156359200332086,14
2.460410068344724,-0.0293026915991908,14
2.4704117352892148,-0.07309977156207745,14
2.480413402233706,-0.08488540663116734,14
2.4904150691781965,-0.11826463083224602,14
2.5004167361226872,-0.16883227258841096,14
2.510418403067178,-0.21265769225285241,14
2.5204200700116686,-0.2554238996755033,14
2.5304217369561592,-0.3331858666696417,14
2.5404234039006504,-0.3778055750866149,14
2.550425070845141,-0.44851478608972617,14
2.5604267377896317,-0.5103244477817637,14
2.5704284047341224,-0.5852667446784553,14
2.580430071678613,-0.6395332287604509,14
2.590431738623104,-0.6733013598923202,14
2.600433405567595,-0.7115563763410602,14
2.6104350725120855,-0.7532194768140807,14
2.620436739456576,-0.7674415790150657,14
2.630438406401067,-0.7627882873156556,14
2.6404400733455575,-0.7809210539783003,14
2.6504417402900486,-0.7623620904573899,14
2.6604434072345393,-0.7265003392889391,14
2.67044507417903,-0.6949936447941399,14
2.6804467411235207,-0.642238047910616,14
2.6904484080680113,-0.552881049835898,14
2.700450075012502,-0.48470700055458676,14
2.710451741956993,-0.39907739580055857,14
2.720453408901484,-0.30143012490805104,14
2.7304550758459745,-0.20877972901154457,14
2.740456742790465,-0.0881732789189274,14
2.750458409734956,0.02726855782740706,14
2.7604600766794465,0.12668094486359632,14
2.7704617436239376,0.2655614085695803,14
2.7804634105684283,0.3409727731033436,14
2.790465077512919,0.44475868203307517,14
2.8004667444574096,0.5191321308818337,14
2.8104684114019003,0.584731514360316,14
2.820470078346391,0.6738267073731723,14
2.830471745290882,0.7156830447664657,14
2.8404734122353728,0.7531360690366206,14
2.8504750791798634,0.7683902877968862,14
2.860476746124354,0.7909220119002106,14
2.8704784130688448,0.7631516334415355,14
2.880480080013336,0.752853847595875,14
2.8904817469578266,0.7282852209958839,14
2.9004834139023172,0.7008121321753222,14
2.910485080846808,0.6582229308376545,14
2.9204867477912986,0.5861907465840224,14
2.9304884147357892,0.5543019664463197,14
2.9404900816802804,0.48142286791833844,14
2.950491748624771,0.428493791186567,14
2.9604934155692617,0.35075991849176985,14
2.9704950825137524,0.2977793608286717,14
2.980496749458243,0.23778916345795745,14
2.9904984164027337,0.19631649653502067,14
3.000500083347225,0.12626524977714723,14
3.0105017502917155,0.1088259208956366,14
3.020503417236206,0.06717319350083693,14
3.030505084180697,0.05083454584512469,14
3.0405067511251875,0.00907716916817091,14
3.050508418069678,0.03037225217726231,14
3.0605100850141693,0.010335539721545476,14
3.07051175195866,-0.004070940772497854,14
3.0805134189031507,-0.014915592723082814,14
3.0905150858476413,0.0038354806930073096,14
3.100516752792132,0.010409364210655945,14
3.1105184197366227,-0.010505174175498363,14
3.120520086681114,0.002094858221979079,14
3.1305217536256045,0.006848350916839253,14
3.140523420570095,-0.010010013910339108,14
3.150525087514586,-0.03668660799804906,14
3.1605267544590765,-0.054798547350420036,14
3.170528421403567,-0.09168033354622551,14
3.1805300883480583,-0.13449202874554803,14
3.190531755292549,-0.17290459030720412,14
3.2005334222370396,-0.21379308912665398,14
3.2105350891815303,-0.27382697442230025,14
3.220536756126021,-0.33123677744783203,14
3.230538423070512,-0.39790139418631365,14
3.2405400900150028,-0.4669549737046664,14
3.2505417569594934,-0.5214596681758185,14
3.260543423903984,-0.5897475005588095,14
3.270545090848475,-0.6541878710382214,14
3.2805467577929655,-0.693300084405768,14
3.2905484247374566,-0.7139204101318822,14
3.3005500916819472,-0.7471552851732347,14
3.310551758626438,-0.7734170153465875,14
3.3205534255709286,-0.7740585640304259,14
3.3305550925154193,-0.7887442924522731,14
3.34055675945991,-0.7675657103814439,14
3.350558426404401,-0.7250894582445498,14
3.3605600933488917,-0.6758222709133938,14
3.3705617602933824,-0.6247111450103223,14
3.380563427237873,-0.5399104719629304,14
3.3905650941823637,-0.47007033133533,14
3.4005667611268544,-0.37149215287229725,14
3.4105684280713455,-0.2607054374896447,14
3.420570095015836,-0.16266943164833889,14
3.430571761960327,-0.039479272831750116,14
3.4405734289048175,0.03477493256946597,14
3.450575095849308,0.1575835462466657,14
3.460576762793799,0.2857841261742861,14
3.47057842973829,0.3876330823076695,14
3.4805800966827807,0.44278625834348434,14
3.4905817636272714,0.5484655296461984,14
3.500583430571762,0.6158765401002094,14
3.5105850975162527,0.6863134683761004,14
3.5205867644607434,0.7210536382459989,14
3.5305884314052345,0.7471530210307643,14
3.540590098349725,0.7678715408041041,14
3.550591765294216,0.7645506884351495,14
3.5605934322387065,0.7730085218860364,14
3.570595099183197,0.7611981521730252,14
3.5805967661276883,0.7242032942643158,14
3.590598433072179,0.6726594950135661,14
3.6006001000166696,0.638383571945657,14
3.6106017669611603,0.5792026725480768,14
3.620603433905651,0.506974234659596,14
3.6306051008501417,0.4588706990026901,14
3.6406067677946328,0.41211882095405544,14
3.6506084347391234,0.3443839110735903,14
3.660610101683614,0.2701978272026123,14
3.670611768628105,0.22982105831692135,14
3.6806134355725955,0.16980305278937083,14
3.690615102517086,0.12653831491812437,14
3.7006167694615772,0.10244564811054352,14
3.710618436406068,0.08446820351090208,14
3.7206201033505586,0.04088755500723243,14
3.7306217702950493,0.03768113201843601,14
3.74062343723954,0.009135686847400196,14
3.7506251041840306,0.008848175304790401,14
3.7606267711285217,0.005300939457096538,14
3.7706284380730124,-0.006512552172691849,14
3.780630105017503,0.0030458325034219674,14
3.7906317719619937,-0.014270565356596033,14
3.8006334389064844,0.00824648875818567,14
3.810635105850975,0.0011547854637452126,14
3.820636772795466,-0.026391267069930176,14
3.830638439739957,-0.040219204211136624,14
3.8406401066844476,-0.047841731590510826,14
3.8506417736289382,-0.08288971712975245,14
3.860643440573429,-0.10639430841406178,14
3.87064510751792,-0.14195488695765898,14
3.8806467744624107,-0.20745585824159615,14
3.8906484414069014,-0.2453816819061287,14
3.900650108351392,-0.31472508005966215,14
3.9106517752958827,-0.3585890073283204,14
3.9206534422403734,-0.4256414711353203,14
3.9306551091848645,-0.48243445442779775,14
3.940656776129355,-0.5555078932255514,14
3.950658443073846,-0.597581947343573,14
3.9606601100183365,-0.6574649025729622,14
3.970661776962827,-0.6945479749437695,14
3.980663443907318,-0.7403380318048327,14
3.990665110851809,-0.7774302600094111,14
4.000666777796299,-0.773665491781308,14
4.01066844474079,-0.7865949330649484,14
4.020670111685281,-0.758004015359506,14
4.030671778629772,-0.7532476243960787,14
4.040673445574263,-0.7217593106152435,14
4.0506751125187535,-0.643674160456496,14
4.060676779463244,-0.5816587186596709,14
4.070678446407735,-0.5313604163045889,14
4.0806801133522255,-0.4142606182604359,14
4.090681780296716,-0.3342494856904369,14
4.100683447241207,-0.23982254970133648,14
4.1106851141856975,-0.1246119748638055,14
4.120686781130188,-0.014905265956400678,14
4.130688448074679,0.07980167733374517,14
4.14069011501917,0.20561015252138512,14
4.150691781963661,0.30293331967101145,14
4.160693448908152,0.3967174445735737,14
4.170695115852642,0.4893602353865062,14
4.180696782797133,0.5613314547986475,14
4.190698449741624,0.6446939166838355,14
4.200700116686114,0.6825625437518128,14
4.210701783630605,0.7286834064557843,14
4.220703450575096,0.7675335018756746,14
4.2307051175195864,0.7632177745953892,14
4.240706784464077,0.7839136961687739,14
4.250708451408569,0.7465406035378783,14
4.260710118353059,0.7432817008035036,14
4.27071178529755,0.7104524240272699,14
4.280713452242041,0.6687577346844854,14
4.290715119186531,0.6186082160630946,14
4.300716786131022,0.5605363379522317,14
4.310718453075513,0.4995078135711609,14
4.320720120020003,0.4449441217916193,14
4.330721786964494,0.40105443873890445,14
4.340723453908985,0.33875151792536,14
4.350725120853475,0.26478115296852606,14
4.360726787797966,0.21017219642834825,14
4.370728454742458,0.15619350689399736,14
4.380730121686948,0.13249016150631288,14
4.390731788631439,0.11685964432450943,14
4.40073345557593,0.06281449482127507,14
4.41073512252042,0.04057094556794359,14
4.420736789464911,0.03348744424924299,14
4.430738456409402,0.0028182720232849314,14
4.440740123353892,0.008691332660690429,14
4.450741790298383,-0.021830145167885204,14
4.460743457242874,0.004491736512745074,14
4.470745124187364,0.0032936332757940905,14
4.480746791131855,-0.009969495361257739,14
4.490748458076347,0.0005087213865211807,14
4.500750125020837,-0.009418777856704055,14
4.510751791965328,-0.011149735477822326,14
4.520753458909819,-0.04612991676826718,14
4.530755125854309,-0.062450234258581656,14
4.5407567927988,-0.08905477427746575,14
4.550758459743291,-0.12323405148806857,14
4.560760126687781,-0.15978345682072279,14
4.570761793632272,-0.20668597521137871,14
4.580763460576763,-0.2775521955484807,14
4.590765127521253,-0.30503360814578434,14
4.600766794465745,-0.36430156433110017,14
4.6107684614102356,-0.4409903942640069,14
4.620770128354726,-0.501574744935978,14
4.630771795299217,-0.552029936657482,14
4.640773462243708,-0.6302276747415342,14
4.650775129188198,-0.666370277653329,14
4.660776796132689,-0.7056106695535743,14
4.67077846307718,-0.7430618026489182,14
4.68078013002167,-0.7642586368264408,14
4.690781796966161,-0.7721383064967119,14
4.700783463910652,-0.8035968533287746,14
4.710785130855142,-0.7719828218478743,14
4.720786797799634,-0.7416643832940666,14
4.7307884647441245,-0.7128129712951692,14
4.740790131688615,-0.6474264326937703,14
4.750791798633106,-0.5603361001376372,14
4.7607934655775965,-0.5005735354060415,14
4.770795132522087,-0.4023399942555995,14
4.780796799466578,-0.3078973491133937,14
4.7907984664110685,-0.18674858721670115,14
4.800800133355559,-0.0875735168066057,14
4.81080180030005,0.002320266943453983,14
4.820803467244541,0.12349586318430217,14
4.830805134189032,0.23198231200204822,14
4.840806801133523,0.3306629756162374,14
4.8508084680780135,0.4299103200810539,14
4.860810135022504,0.5054502957545485,14
4.870811801966995,0.5935757623482125,14
4.8808134689114855,0.6628250799441453,14
4.890815135855976,0.7033380666082274,14
4.900816802800467,0.7437396734152925,14
4.9108184697449575,0.7765013871241526,14
4.920820136689448,0.7903954642466053,14
4.930821803633939,0.7759529129706283,14
4.9408234705784295,0.7576586578468547,14
4.950825137522921,0.7290132550247269,14
4.960826804467412,0.7056604522953913,14
4.970828471411902,0.643104542331975,14
4.980830138356393,0.5777897838020533,14
4.990831805300884,0.525763666460347,14
5.0008334722453744,0.48519943232958973,14
5.010835139189865,0.41907716661219835,14
5.020836806134356,0.3682047695302922,14
5.0308384730788465,0.2971292718334162,14
5.040840140023337,0.22656460795307465,14
5.050841806967828,0.2117477485089405,14
5.0608434739123185,0.14206096606199112,14
5.07084514085681,0.11957601051795763,14
5.080846807801301,0.071127066951814,14
5.090848474745791,0.04395647358966023,14
5.100850141690282,0.02099719809593043,14
5.110851808634773,0.025420430353105095,14
5.120853475579263,-0.004343135131659268,14
5.130855142523754,0.008317660421192408,14
5.140856809468245,0.00733363013106721,14
5.150858476412735,0.009303977144934665,14
5.160860143357226,-0.011657832371636133,14
5.170861810301717,-0.01707153062911394,14
5.180863477246208,-0.012419073936110147,14
5.190865144190699,-0.00218727902559333,14
5.20086681113519,-0.029292398975218004,14
5.21086847807968,-0.030286589293064686,14
5.220870145024171,-0.0785477345496215,14
5.230871811968662,-0.09929203913218447,14
5.240873478913152,-0.1466965602722828,14
5.250875145857643,-0.18503495892930688,14
5.260876812802134,-0.22912111365739984,14
5.270878479746624,-0.27828643600317265,14
5.280880146691115,-0.3343014543832139,14
5.290881813635606,-0.3814693706151872,14
5.300883480580097,-0.47368823662589943,14
5.310885147524588,-0.5308717162810599,14
5.320886814469079,-0.5797691907318447,14
5.330888481413569,-0.6481945413441682,14
5.34089014835806,-0.6756000032030063,14
5.350891815302551,-0.7188240228221607,14
5.360893482247041,-0.7574509324004459,14
5.370895149191532,-0.7482693313052046,14
5.380896816136023,-0.7751537455859434,14
5.390898483080513,-0.7557816458111611,14
5.400900150025004,-0.758210644426303,14
5.410901816969495,-0.7363079620886204,14
5.420903483913986,-0.6868273222512007,14
5.430905150858477,-0.6422258362654955,14
5.440906817802968,-0.5487622790185575,14
5.450908484747458,-0.47033725981619495,14
5.460910151691949,-0.36640750746010364,14
5.47091181863644,-0.25708563547649316,14
5.48091348558093,-0.1983819186225273,14
5.490915152525421,-0.0452718882377416,14
5.500916819469912,0.046946299074115044,14
5.510918486414402,0.15043594320798925,14
5.520920153358893,0.2737708209971176,14
5.5309218203033845,0.3683953975400777,14
5.540923487247875,0.43512943741018434,14
5.550925154192366,0.5372319347685064,14
5.5609268211368565,0.6141549712497817,14
5.570928488081347,0.6811800524277193,14
5.580930155025838,0.7132057449315364,14
5.590931821970329,0.7447541126275409,14
5.600933488914819,0.7762683526771059,14
5.61093515585931,0.789383150694997,14
5.620936822803801,0.790001146835114,14
5.630938489748291,0.7565373701937714,14
5.640940156692782,0.7318170935288092,14
5.6509418236372735,0.6749368774722954,14
5.660943490581764,0.6457953989140343,14
5.670945157526255,0.5692112276651529,14
5.6809468244707455,0.5290515687678073,14
5.690948491415236,0.47700356718925224,14
5.700950158359727,0.41402579434521125,14
5.7109518253042175,0.3316744164485428,14
5.720953492248708,0.270850575210589,14
5.730955159193199,0.22190485700595716,14
5.7409568261376895,0.1708229163813122,14
5.75095849308218,0.12231149841603949,14
5.760960160026672,0.09794091292497559,14
5.7709618269711624,0.07161691664644623,14
5.780963493915653,0.03303903147891096,14
5.790965160860144,0.03526408095045289,14
5.8009668278046345,0.012355251173580193,14
5.810968494749125,-0.004303700632123647,14
5.820970161693616,0.012627769249702846,14
5.8309718286381065,-0.010167708906226971,14
5.840973495582597,-0.018902437281755412,14
5.850975162527088,-0.0113577828711021,14
5.8609768294715785,-0.004397022477899337,14
5.870978496416069,-0.008275842959046938,14
5.880980163360561,-0.034815345270193865,14
5.890981830305051,-0.04123159998441245,14
5.900983497249542,-0.044123594943045234,14
5.910985164194033,-0.06646300102312273,14
5.920986831138523,-0.10766615711962982,14
5.930988498083014,-0.15313239914529667,14
5.940990165027505,-0.18714726977667348,14
5.950991831971995,-0.23923065660355639,14
5.960993498916486,-0.28849895425093003,14
5.970995165860977,-0.35383840362239677,14
5.9809968328054675,-0.4248561635875029,14
5.990998499749958,-0.48132386513383635,14
6.00100016669445,-0.5408025440369851,14
6.01100183363894,-0.6040693387868523,14
6.021003500583431,-0.6434976115706711,14
6.031005167527922,-0.6796299015495169,14
6.041006834472412,-0.7148956562977671,14
6.051008501416903,-0.7491725198467836,14
6.061010168361394,-0.7723648189404946,14
6.071011835305884,-0.7868456303874194,14
6.081013502250375,-0.7919818295545408,14
6.091015169194866,-0.7521001293185537,14
6.101016836139356,-0.7088518432448672,14
6.111018503083848,-0.6595094009957744,14
6.121020170028339,-0.6034584932204256,14
6.131021836972829,-0.49844268663804503,14
6.14102350391732,-0.4418949038884203,14
6.151025170861811,-0.3536157785728134,14
6.161026837806301,-0.2430726394754809,14
6.171028504750792,-0.13169394228018563,14
6.181030171695283,-0.030868706375854288,14
6.191031838639773,0.08485776606294455,14
6.201033505584264,0.1913114276570345,14
6.211035172528755,0.2937007675264463,14
6.221036839473245,0.38729561808647467,14
6.231038506417737,0.4701146336145254,14
6.241040173362228,0.5554005902331691,14
6.251041840306718,0.6142110162585668,14
6.261043507251209,0.6970278546665389,14
6.2710451741957,0.7334799811142358,14
6.28104684114019,0.7698585341693286,14
6.291048508084681,0.773989514228608,14
6.301050175029172,0.7717911782913599,14
6.311051841973662,0.773237805398926,14
6.321053508918153,0.7490563586647714,14
6.331055175862644,0.7075080747958833,14
6.341056842807134,0.6591693269785673,14
6.351058509751626,0.6207157901593462,14
6.361060176696117,0.5666202421971278,14
6.371061843640607,0.5035061764040052,14
6.381063510585098,0.4765706828388123,14
6.391065177529589,0.3884084564870157,14
6.401066844474079,0.314888348133998,14
6.41106851141857,0.2583628469360272,14
6.421070178363061,0.22470905207490124,14
6.431071845307551,0.18374608014444183,14
6.441073512252042,0.1180917442068591,14
6.451075179196533,0.07383312554197194,14
6.461076846141024,0.05927358423386381,14
6.471078513085515,0.014861719168585905,14
6.4810801800300055,0.021091562579607134,14
6.491081846974496,0.015248413449178336,14
6.501083513918987,0.010728831708892113,14
6.5110851808634775,-0.005881069910227072,14
6.521086847807968,-0.020001877230235304,14
6.531088514752459,-0.0016803613160951256,14
6.54109018169695,-0.00545589682473457,14
6.55109184864144,0.010801463207298516,14
6.561093515585931,-0.027513352417818392,14
6.571095182530422,-0.03548594398189853,14
6.581096849474913,-0.029601986821037443,14
6.591098516419404,-0.06009747649708059,14
6.6011001833638945,-0.08259783472583197,14
6.611101850308385,-0.12062028485219245,14
6.621103517252876,-0.1648790279836401,14
6.6311051841973665,-0.21003292027158915,14
6.641106851141857,-0.26266965117704977,14
6.651108518086348,-0.2994774472554922,14
6.6611101850308385,-0.38510125814546164,14
6.671111851975329,-0.4373804129555901,14
6.68111351891982,-0.49324888466552586,14
6.6911151858643105,-0.55086359535855,14
6.701116852808802,-0.6070384375228685,14
6.711118519753293,-0.6819116750340932,14
6.721120186697783,-0.6949485622678564,14
6.731121853642274,-0.75649385852196,14
6.741123520586765,-0.7667609914843859,14
6.7511251875312555,-0.7871399511679833,14
6.761126854475746,-0.7986885299047587,14
6.771128521420237,-0.7725709679974795,14
6.7811301883647275,-0.7451990544575869,14
6.791131855309218,-0.7105356584548362,14
6.801133522253709,-0.651299512097697,14
6.8111351891982,-0.5687045163382469,14
6.821136856142691,-0.48906086786039604,14
6.831138523087182,-0.42556814853190217,14
6.841140190031672,-0.3266512106412634,14
6.851141856976163,-0.20715768598136966,14
6.861143523920654,-0.09770562661654363,14
6.871145190865144,0.025077580686876814,14
6.881146857809635,0.1100002279957372,14
6.891148524754126,0.22805890865012504,14
6.901150191698616,0.3299611579552274,14
6.911151858643107,0.4215360033963151,14
6.921153525587598,0.5291080614084677,14
6.931155192532089,0.5862384814872005,14
6.94115685947658,0.6583547547360766,14
6.951158526421071,0.7036161201165555,14
6.961160193365561,0.7415527856506218,14
6.971161860310052,0.7800187014512994,14
6.981163527254543,0.7666413238294472,14
6.991165194199033,0.7852945981311347,14
7.001166861143524,0.7558038284527284,14
7.011168528088015,0.735066807911137,14
7.021170195032505,0.69336205849616,14
7.031171861976996,0.6485310275130975,14
7.041173528921487,0.6054243118673208,14
7.051175195865978,0.5578602395579819,14
7.061176862810469,0.48794027588264816,14
7.07117852975496,0.4202598558930872,14
7.08118019669945,0.37527775329257185,14
7.091181863643941,0.3203134503831663,14
7.101183530588432,0.23928070431542806,14
7.111185197532922,0.21139082324769454,14
7.121186864477413,0.15501192230184216,14
7.131188531421904,0.09447623318142576,14
7.141190198366394,0.07841525657512104,14
7.151191865310885,0.05913803465174006,14
7.161193532255377,0.0203259805285113,14
7.171195199199867,0.018912135293693243,14
7.181196866144358,0.004801390049289955,14
7.191198533088849,0.006493166489361657,14
7.201200200033339,-0.00825640051477558,14
7.21120186697783,0.01952995128874789,14
7.221203533922321,0.011975918521501108,14
7.231205200866811,-0.015508509704403903,14
7.241206867811302,-0.02262139489013004,14
7.251208534755793,-0.009207366504515637,14
7.261210201700283,-0.041519757310092865,14
7.271211868644774,-0.027394514432943173,14
7.2812135355892655,-0.06502387127370467,14
7.291215202533756,-0.10184051055902772,14
7.301216869478247,-0.13644914369825664,14
7.311218536422738,-0.1750979967182886,14
7.321220203367228,-0.21818084049745648,14
7.331221870311719,-0.27258788979465315,14
7.34122353725621,-0.3137158657752077,14
7.3512252042007,-0.40707277033333883,14
7.361226871145191,-0.42662870464440383,14
7.371228538089682,-0.5147132594479168,14
7.381230205034172,-0.5719508479495953,14
7.391231871978664,-0.6270803870271332,14
7.4012335389231545,-0.680305325262503,14
7.411235205867645,-0.7078902177417683,14
7.421236872812136,-0.7456361677408377,14
7.4312385397566265,-0.7793866869669208,14
7.441240206701117,-0.775485267297999,14
7.451241873645608,-0.7848049150333407,14
7.4612435405900985,-0.7712332454291604,14
7.471245207534589,-0.7129694836668051,14
7.48124687447908,-0.6808582911302835,14
7.4912485414235706,-0.621625750909118,14
7.501250208368061,-0.5560429587991492,14
7.511251875312553,-0.46172882423275285,14
7.5212535422570435,-0.38548647620157606,14
7.531255209201534,-0.2661759555251151,14
7.541256876146025,-0.18000748371143496,14
7.5512585430905155,-0.0713343367812397,14
7.561260210035006,0.03168897477534766,14
7.571261876979497,0.1547965525962146,14
7.5812635439239875,0.22784489154617513,14
7.591265210868478,0.3689835482397542,14
7.601266877812969,0.43750603693461015,14
7.6112685447574595,0.549871577818254,14
7.62127021170195,0.6122905242483443,14
7.631271878646442,0.6757714632867806,14
7.641273545590932,0.7117732977978302,14
7.651275212535423,0.7491199508107569,14
7.661276879479914,0.7660833577114229,14
7.671278546424404,0.7933672354029253,14
7.681280213368895,0.766503659260407,14
7.691281880313386,0.7618597674220299,14
7.7012835472578764,0.7167088534771331,14
7.711285214202367,0.670645196827383,14
7.721286881146858,0.6548594429144243,14
7.7312885480913485,0.5901328102704744,14
7.74129021503584,0.5384455599662532,14
7.751291881980331,0.4660409382870465,14
7.761293548924821,0.41256773211744807,14
7.771295215869312,0.34749688739437035,14
7.781296882813803,0.2934827201582592,14
7.791298549758293,0.2208596896878037,14
7.801300216702784,0.16913554703350656,14
7.811301883647275,0.11830258663871625,14
7.821303550591765,0.11515385879947512,14
7.831305217536256,0.08238505136192734,14
7.841306884480747,0.03185939337477729,14
7.851308551425237,0.018293187906929374,14
7.861310218369729,0.005365328984278795,14
7.87131188531422,-0.0021151477917659405,14
7.88131355225871,-0.0007884069141672612,14
7.891315219203201,0.002264489467575262,14
7.901316886147692,-0.012949964316349094,14
7.911318553092182,0.0004380769308538312,14
7.921320220036673,0.0010001047820402814,14
7.931321886981164,0.0021394095336555417,14
7.941323553925654,0.0007177622742085346,14
7.951325220870145,-0.0150337268924787,14
7.961326887814636,-0.05912362541736982,14
7.971328554759126,-0.0719696826133201,14
7.981330221703618,-0.1001920300991564,14
7.991331888648109,-0.14411066238279185,14
8.001333555592598,-0.17482183534254245,14
8.01133522253709,-0.2552389964230731,14
8.02133688948158,-0.302809242234338,14
8.031338556426071,-0.3566723903445093,14
8.041340223370563,-0.4159807815752347,14
8.051341890315053,-0.4622094169058762,14
8.061343557259544,-0.5465220152681709,14
8.071345224204034,-0.5887587880543012,14
8.081346891148526,-0.6479615262527585,14
8.091348558093015,-0.6958508091858632,14
8.101350225037507,-0.726526649983151,14
8.111351891981997,-0.7522077273387062,14
8.121353558926488,-0.7773491578811059,14
8.131355225870978,-0.7848183729600969,14
8.14135689281547,-0.783975790310471,14
8.151358559759961,-0.7483965519873158,14
8.161360226704451,-0.7141161388942016,14
8.171361893648942,-0.6702900297470167,14
8.181363560593432,-0.6018525455833058,14
8.191365227537924,-0.5442395832903939,14
8.201366894482414,-0.4345650266066521,14
8.211368561426905,-0.34472427574828923,14
8.221370228371395,-0.2424836742909535,14
8.231371895315887,-0.13978090361698006,14
8.241373562260376,-0.038199131415219835,14
8.251375229204868,0.0557457956567296,14
8.261376896149358,0.19432858239463624,14
8.27137856309385,0.2830480017735535,14
8.28138023003834,0.38428745350298255,14
8.29138189698283,0.47500923828771446,14
8.301383563927322,0.5595629985722979,14
8.311385230871812,0.6266049537612229,14
8.321386897816303,0.6973130975284275,14
8.331388564760793,0.7281978957596663,14
8.341390231705285,0.7692642345292348,14
8.351391898649775,0.7632531346139264,14
8.361393565594266,0.7867202410586984,14
8.371395232538756,0.7568820890692073,14
8.381396899483248,0.7565143291489049,14
8.391398566427739,0.7185459237630325,14
8.401400233372229,0.6736596415032995,14
8.41140190031672,0.6353133997199959,14
8.42140356726121,0.5712955831439465,14
8.431405234205702,0.5315955909668603,14
8.441406901150192,0.4467344664880806,14
8.451408568094683,0.3870276001418768,14
8.461410235039173,0.33537182375113966,14
8.471411901983664,0.26551014824490576,14
8.481413568928154,0.2152542685471557,14
8.491415235872646,0.17132078788045846,14
8.501416902817137,0.13659345232470102,14
8.511418569761627,0.08356882674894978,14
8.521420236706119,0.04942734159320688,14
8.531421903650608,0.04403880303347402,14
8.5414235705951,0.041609619889936514,14
8.55142523753959,0.023329115606494776,14
8.561426904484081,0.0033248549184805498,14
8.571428571428571,0.016353560957733042,14
8.581430238373063,-0.007346544786042761,14
8.591431905317553,0.005245802845105441,14
8.601433572262044,0.0037303691933702875,14
8.611435239206534,-0.0012501756351105562,14
8.621436906151025,-0.01065159794702895,14
8.631438573095517,-0.01515136379126381,14
8.641440240040007,-0.030524664919764598,14
8.651441906984498,-0.05672912292090046,14
8.661443573928988,-0.1060898530141497,14
8.67144524087348,-0.11687822230580253,14
8.68144690781797,-0.15335044237099588,14
8.691448574762461,-0.19797182459514745,14
8.70145024170695,-0.23692892422067005,14
8.711451908651442,-0.308941140693487,14
8.721453575595932,-0.34682527568530747,14
8.731455242540424,-0.4593935018044262,14
8.741456909484915,-0.4943373231423576,14
8.751458576429405,-0.5471018787537857,14
8.761460243373897,-0.6106539210820318,14
8.771461910318386,-0.6754143152866586,14
8.781463577262878,-0.6899894463050463,14
8.791465244207368,-0.7347018788005425,14
8.80146691115186,-0.7674811850702528,14
8.811468578096349,-0.7693680129782593,14
8.82147024504084,-0.7835563603332045,14
8.83147191198533,-0.7782879082873828,14
8.841473578929822,-0.7569783345707848,14
8.851475245874314,-0.69380355466867,14
8.861476912818803,-0.6491239385992639,14
8.871478579763295,-0.5769385934711526,14
8.881480246707785,-0.49648332665107214,14
8.891481913652276,-0.4103532359145661,14
8.901483580596766,-0.3257641527273163,14
8.911485247541258,-0.22596806680189158,14
8.921486914485747,-0.11506648782551264,14
8.931488581430239,-0.011458618549476997,14
8.941490248374729,0.09921606840527362,14
8.95149191531922,0.21767680997786354,14
8.96149358226371,0.31252391778308986,14
8.971495249208202,0.41140354163024356,14
8.981496916152693,0.5060831984605603,14
8.991498583097183,0.5911013052529185,14
9.001500250041675,0.6276148286523515,14
9.011501916986164,0.6871102417224397,14
9.021503583930656,0.7421893133572638,14
9.031505250875146,0.7629224303871958,14
9.041506917819637,0.7750327779836413,14
9.051508584764127,0.7893790364412882,14
9.061510251708619,0.7778518481779755,14
9.071511918653108,0.7615901900861455,14
9.0815135855976,0.7064298438757971,14
9.091515252542091,0.6393460015613066,14
9.101516919486581,0.6143411850590492,14
9.111518586431073,0.5483909765019327,14
9.121520253375563,0.5004491661487463,14
9.131521920320054,0.42945244021193174,14
9.141523587264544,0.37133718861397197,14
9.151525254209036,0.3084632729215366,14
9.161526921153525,0.23966801656500164,14
9.171528588098017,0.21510818812677537,14
9.181530255042507,0.153141552315529,14
9.191531921986998,0.13116319503657187,14
9.20153358893149,0.08207523834630157,14
9.21153525587598,0.05944096818998809,14
9.221536922820471,0.03582350017387788,14
9.231538589764961,0.033249747870763395,14
9.241540256709452,0.007804732785293385,14
9.251541923653942,-0.007917493038902724,14
9.261543590598434,-0.004841090521187589,14
9.271545257542924,0.0036012554301599487,14
9.281546924487415,-0.006920300574422645,14
9.291548591431905,-0.00018913781798925492,14
9.301550258376396,-0.007480026386814394,14
9.311551925320888,-0.014442827329038926,14
9.321553592265378,-0.02773684462240151,14
9.33155525920987,-0.056091722155190094,14
9.34155692615436,-0.05234199752767272,14
9.35155859309885,-0.1037951011118595,14
9.36156026004334,-0.14060734650173898,14
9.371561926987832,-0.15679025545973496,14
9.381563593932322,-0.21652425100092643,14
9.391565260876813,-0.27212818007649314,14
9.401566927821303,-0.3250474403392775,14
9.411568594765795,-0.38328037842979396,14
9.421570261710285,-0.46947659288507315,14
9.431571928654776,-0.5217834343946313,14
9.441573595599268,-0.5740185857391515,14
9.451575262543757,-0.6283426287816845,14
9.461576929488249,-0.6657168596050737,14
9.471578596432739,-0.7224304566835429,14
9.48158026337723,-0.75115161312186,14
9.49158193032172,-0.7645953703337441,14
9.501583597266212,-0.7755706416700752,14
9.511585264210701,-0.7902830234225052,14
9.521586931155193,-0.7509014974321769,14
9.531588598099683,-0.7390190174818964,14
9.541590265044174,-0.6980947248574172,14
9.551591931988666,-0.6467885775052266,14
9.561593598933156,-0.5606884284559087,14
9.571595265877647,-0.48248568169826545,14
9.581596932822137,-0.38124457519527255,14
9.591598599766629,-0.28157856936402076,14
9.601600266711118,-0.19215038096487763,14
9.61160193365561,-0.07329313719962319,14
9.6216036006001,0.03328312888853486,14
9.631605267544591,0.12722247472326623,14
9.641606934489081,0.23026363224356086,14
9.651608601433573,0.3481310035800241,14
9.661610268378064,0.4429035755591525,14
9.671611935322554,0.5197978404137013,14
9.681613602267046,0.5828190335250051,14
9.691615269211535,0.666445559785953,14
9.701616936156027,0.7346266907387825,14
9.711618603100517,0.7285505845415685,14
9.721620270045008,0.7618640153808336,14
9.731621936989498,0.7678652464540102,14
9.74162360393399,0.7710156415034024,14
9.75162527087848,0.7641847400482467,14
9.761626937822971,0.7197458389183814,14
9.77162860476746,0.7079749831540573,14
9.781630271711952,0.6449064514422006,14
9.791631938656444,0.5883333141368111,14
9.801633605600934,0.5330091785298572,14
9.811635272545425,0.47065867034453257,14
9.821636939489915,0.4141842198710799,14
9.831638606434407,0.3552473061981795,14
9.841640273378896,0.29465369949547016,14
9.851641940323388,0.21476603510815373,14
9.861643607267878,0.18595698523752105,14
9.87164527421237,0.15988919330875584,14
9.881646941156859,0.09675918676081981,14
9.89164860810135,0.07183723840342911,14
9.901650275045842,0.06974025221366197,14
9.911651941990332,0.043280348533500365,14
9.921653608934824,0.0066605178469664565,14
9.931655275879313,0.01917024717609002,14
9.941656942823805,-0.003764098066509648,14
9.951658609768295,0.003969563275564869,14
9.961660276712786,0.015393588359520425,14
9.971661943657276,-0.0006388171424876652,14
9.981663610601768,-0.0038392957715709616,14
9.991665277546257,-0.012685311919755958,14
10.001666944490749,-0.018925793167546036,14
10.01166861143524,-0.023993230588292343,14
10.02167027837973,-0.02890805029019228,14
10.031671945324222,-0.08636138507103183,14
10.041673612268712,-0.09931691046392631,14
10.051675279213203,-0.10579640362207987,14
10.061676946157693,-0.18022979361681857,14
10.071678613102184,-0.2247647780632192,14
10.081680280046674,-0.2830069384782834,14
10.091681946991166,-0.35335740752415,14
10.101683613935656,-0.38857840762248597,14
10.111685280880147,-0.4728936829436903,14
10.121686947824637,-0.5246604065669184,14
10.131688614769129,-0.5796066574902039,14
10.14169028171362,-0.640755370364972,14
10.15169194865811,-0.693979044090248,14
10.161693615602601,-0.7185126711230112,14
10.171695282547091,-0.7606800885939523,14
10.181696949491583,-0.7738425653115871,14
10.191698616436073,-0.7793533554460659,14
10.201700283380564,-0.7705258959252995,14
10.211701950325054,-0.7485301021596489,14
10.221703617269545,-0.7071897509697734,14
10.231705284214035,-0.6617285824167934,14
10.241706951158527,-0.627892196206684,14
10.251708618103018,-0.527623442779385,14
10.261710285047508,-0.4433982431049739,14
10.271711951992,-0.3626616190632052,14
10.28171361893649,-0.2732282834262931,14
10.291715285880981,-0.1611631146386219,14
10.30171695282547,-0.04572672596608215,14
10.311718619769962,0.05838901796992444,14
10.321720286714452,0.16868131227695513,14
10.331721953658944,0.2716176241343093,14
10.341723620603434,0.3626771058689692,14
10.351725287547925,0.4910581860068452,14
10.361726954492417,0.5458552048883742,14
10.371728621436906,0.6137600904183363,14
10.381730288381398,0.6788037237822833,14
10.391731955325888,0.727028077652488,14
10.40173362227038,0.7585618127915547,14
10.41173528921487,0.7620554907138439,14
10.42173695615936,0.7708337698239388,14
10.43173862310385,0.7760951988381463,14
10.441740290048342,0.750323850889242,14
10.451741956992832,0.7246901313872484,14
10.461743623937323,0.6828997385573087,14
10.471745290881813,0.6206971928586915,14
10.481746957826305,0.5609332826332619,14
10.491748624770796,0.51484480558721,14
10.501750291715286,0.46341377070111905,14
10.511751958659778,0.4133638814796631,14
10.521753625604267,0.34333297420175496,14
10.531755292548759,0.28183137073418446,14
10.541756959493249,0.21950645458941118,14
10.55175862643774,0.17725755395102796,14
10.56176029338223,0.12012228316947143,14
10.571761960326722,0.12061915207056229,14
10.581763627271211,0.07695835289287795,14
10.591765294215703,0.04440091762850814,14
10.601766961160195,0.023994267847899705,14
10.611768628104684,0.01349273962828129,14
10.621770295049176,-0.018840390904433513,14
10.631771961993666,0.0027352500824028574,14
10.641773628938157,0.0024796536800453825,14
10.651775295882647,-0.013816072684509791,14
10.661776962827139,0.012059892800933348,14
10.671778629771628,-0.002889786156916562,14
10.68178029671612,-0.011474697192501512,14
10.69178196366061,-0.021230420631509477,14
10.701783630605101,-0.02701849130893142,14
10.711785297549593,-0.024327320772976894,14
10.721786964494083,-0.06511596363534042,14
10.731788631438574,-0.11221188767037231,14
10.741790298383064,-0.15346032695237427,14
10.751791965327556,-0.21677381262741224,14
10.761793632272045,-0.23765208379253777,14
10.771795299216537,-0.2899076327610053,14
10.781796966161027,-0.37406580865555256,14
10.791798633105518,-0.42076397237574553,14
10.801800300050008,-0.5023840846160847,14
10.8118019669945,-0.5507684522015232,14
10.82180363393899,-0.6060842055143959,14
10.831805300883481,-0.6517477967449873,14
10.841806967827972,-0.6994685443358615,14
10.851808634772462,-0.7339003928758402,14
10.861810301716954,-0.7717156682459921,14
10.871811968661444,-0.7681303067799973,14
10.881813635605935,-0.7776715856604242,14
10.891815302550425,-0.7593193805686097,14
10.901816969494917,-0.7410267204809977,14
10.911818636439406,-0.7068142913146168,14
10.921820303383898,-0.6599027528903584,14
10.931821970328388,-0.5865809701751085,14
10.94182363727288,-0.5149770962933605,14
10.95182530421737,-0.4278096006565107,14
10.96182697116186,-0.33680187846020626,14
10.971828638106352,-0.2180792883874881,14
10.981830305050842,-0.12492718053901865,14
10.991831971995333,-0.014218902520881063,14
11.001833638939823,0.08453461047017496,14
11.011835305884315,0.2137966827317677,14
11.021836972828805,0.30521933677011465,14
11.031838639773296,0.4174412815746523,14
11.041840306717786,0.5029103512992269,14
11.051841973662277,0.5761885133239412,14
11.061843640606769,0.641469952328575,14
11.071845307551259,0.6926562031724273,14
11.08184697449575,0.7159856927964976,14
11.09184864144024,0.7552648961012399,14
11.101850308384732,0.7876893563416772,14
11.111851975329222,0.7765925926214019,14
11.121853642273713,0.7737658029505147,14
11.131855309218203,0.7379405470957993,14
11.141856976162694,0.7200536689919838,14
11.151858643107184,0.6598344798762458,14
11.161860310051676,0.6126317768846644,14
11.171861976996166,0.5638006756312737,14
11.181863643940657,0.5016545737693482,14
11.191865310885149,0.4269244358652438,14
11.201866977829638,0.37170270404259137,14
11.21186864477413,0.33259783509989044,14
11.22187031171862,0.2455405894997751,14
11.231871978663111,0.19941300498472433,14
11.241873645607601,0.1706104974679091,14
11.251875312552093,0.11427601676470317,14
11.261876979496583,0.08070298970841916,14
11.271878646441074,0.0464716175035987,14
11.281880313385564,0.03215302111898261,14
11.291881980330055,0.022640864143250852,14
11.301883647274547,0.014466904855746407,14
11.311885314219037,0.0155381932394557,14
11.321886981163528,0.0121875666554165,14
11.331888648108018,-0.010300541941725413,14
11.34189031505251,0.02136113115376869,14
11.351891981997,-0.01211876129158698,14
11.361893648941491,-0.004549165786713129,14
11.37189531588598,-0.02171602170886535,14
11.381896982830472,-0.027728804529096988,14
11.391898649774962,-0.03944773901550106,14
11.401900316719454,-0.0586014028913827,14
11.411901983663945,-0.08244841373823811,14
11.421903650608435,-0.11319586181426483,14
11.431905317552927,-0.1760550515981744,14
11.441906984497416,-0.22388861925210551,14
11.451908651441908,-0.2656604849919802,14
11.461910318386398,-0.3293536433228701,14
11.47191198533089,-0.38251838024865814,14
11.481913652275379,-0.4453613886583579,14
11.49191531921987,-0.4976939626030383,14
11.50191698616436,-0.5615752566570876,14
11.511918653108852,-0.6218543665103186,14
11.521920320053344,-0.6811850783651486,14
11.531921986997833,-0.7118802263784999,14
11.541923653942325,-0.7460795112117095,14
11.551925320886815,-0.7596050975726746,14
11.561926987831306,-0.7715262237151559,14
11.571928654775796,-0.7814895344536844,14
11.581930321720288,-0.7696167422575068,14
11.591931988664777,-0.7566515139602022,14
11.601933655609269,-0.7014422319991792,14
11.611935322553759,-0.6285718105047501,14
11.62193698949825,-0.5622257130946702,14
11.63193865644274,-0.47748483303047545,14
11.641940323387232,-0.3913678600460464,14
11.651941990331723,-0.3020147501232524,14
11.661943657276213,-0.20035062544526067,14
11.671945324220705,-0.08859539778296899,14
11.681946991165194,0.03087243076204913,14
11.691948658109686,0.11709252109608956,14
11.701950325054176,0.23663720836692906,14
11.711951991998667,0.34698819346341153,14
11.721953658943157,0.4425881841922548,14
11.731955325887649,0.4927793583149258,14
11.741956992832138,0.6055310065055909,14
11.75195865977663,0.6618640837584753,14
11.761960326721121,0.7227878268216404,14
11.771961993665611,0.7413218212070907,14
11.781963660610103,0.7610372534983431,14
11.791965327554593,0.7842021140579648,14
11.801966994499084,0.7689387554396047,14
11.811968661443574,0.7598422036569568,14
11.821970328388065,0.7432733965260886,14
11.831971995332555,0.6966050991604793,14
11.841973662277047,0.6485754702172938,14
11.851975329221537,0.6013547405734627,14
11.861976996166028,0.5433055730464736,14
11.87197866311052,0.47089694519086167,14
11.88198033005501,0.42242798287255234,14
11.891981996999501,0.3623045092731393,14
11.90198366394399,0.3140736506654629,14
11.911985330888482,0.23756476583122427,14
11.921986997832972,0.17803705045190948,14
11.931988664777464,0.13015168886136738,14
11.941990331721954,0.1000683256673022,14
11.951991998666445,0.07834244908325826,14
11.961993665610935,0.04004367593090828,14
11.971995332555426,0.039292314457250434,14
11.981996999499916,0.023445029474461494,14
11.991998666444408,0.0016551920808765552,14
12.0020003333889,-0.009722574283710136,14
12.01200200033339,-0.010973345093932824,14
12.02200366727788,0.007518033676721262,14
12.03200533422237,0.009835068415063118,14
12.042007001166862,0.010500668096873736,14
12.052008668111352,0.006445079546317676,14
12.062010335055843,-0.027968054354082703,14
12.072012002000333,-0.025076644794926585,14
12.082013668944825,-0.04751429026169398,14
12.092015335889315,-0.06478144671889371,14
12.102017002833806,-0.11164428433814302,14
12.112018669778298,-0.13948591414811443,14
12.122020336722787,-0.19165095464059786,14
12.132022003667279,-0.20850088258701696,14
12.142023670611769,-0.2654427549798241,14
12.15202533755626,-0.35397362739422056,14
12.16202700450075,-0.42007131151287147,14
12.172028671445242,-0.46502625260211766,14
12.182030338389731,-0.5166321933823588,14
12.192032005334223,-0.5973595245281582,14
12.202033672278713,-0.6416393277737379,14
12.212035339223204,-0.6622420183956395,14
12.222037006167696,-0.7208433943295794,14
12.232038673112186,-0.7636272882224131,14
12.242040340056677,-0.7724933105565739,14
12.252042007001167,-0.773334463703807,14
12.262043673945659,-0.7792256799472136,14
12.272045340890148,-0.7514458636249683,14
12.28204700783464,-0.6997579337453306,14
12.29204867477913,-0.6851218329130918,14
12.302050341723621,-0.6156359439227591,14
12.312052008668111,-0.5419199250175278,14
12.322053675612603,-0.4551721508251039,14
12.332055342557092,-0.36746995627837037,14
12.342057009501584,-0.26735594131825996,14
12.352058676446076,-0.14037137365169713,14
12.362060343390565,-0.044013855664622153,14
12.372062010335057,0.07439468772672718,14
12.382063677279547,0.1662352437663863,14
12.392065344224038,0.27030027156501785,14
12.402067011168528,0.3683101227550691,14
12.41206867811302,0.4696647340264239,14
12.42207034505751,0.5320870072699508,14
12.432072012002001,0.6206417061162427,14
12.44207367894649,0.6737738995522392,14
12.452075345890982,0.7200415905656685,14
12.462077012835474,0.7557429558672489,14
12.472078679779964,0.7790800326158389,14
12.482080346724455,0.7861739626989998,14
12.492082013668945,0.7744490287464735,14
12.502083680613437,0.7525947661062161,14
12.512085347557926,0.7247435331394835,14
12.522087014502418,0.6885969670506635,14
12.532088681446908,0.6453959221683996,14
12.5420903483914,0.5796646807064795,14
12.552092015335889,0.5133551735063673,14
12.56209368228038,0.45143997938924413,14
12.572095349224872,0.4180313979538078,14
12.582097016169362,0.34219012236370133,14
12.592098683113853,0.2846381296494352,14
12.602100350058343,0.22778674094642884,14
12.612102017002835,0.1726804884664852,14
12.622103683947325,0.14115618181635262,14
12.632105350891816,0.10507202424418235,14
12.642107017836306,0.056291375531345236,14
12.652108684780798,0.034780579405970374,14
12.662110351725287,0.014533966474779047,14
12.672112018669779,0.023959521460256414,14
12.682113685614269,0.021125510793543256,14
12.69211535255876,0.00017185313923725022,14
12.702117019503252,0.010047258224843106,14
12.712118686447742,0.0013076465087980239,14
12.722120353392233,0.0012595416926755557,14
12.732122020336723,0.001997994792347771,14
12.742123687281214,-0.010688091613441747,14
12.752125354225704,-0.02136949368940671,14
12.762127021170196,-0.04234800331492305,14
12.772128688114686,-0.06645707166634932,14
12.782130355059177,-0.07328426429973511,14
12.792132022003667,-0.0983758466516831,14
12.802133688948159,-0.15548980906765492,14
12.81213535589265,-0.19747545455645368,14
12.82213702283714,-0.23423401434796928,14
12.832138689781631,-0.3019081357468686,14
12.842140356726121,-0.3627383857315174,14
12.852142023670613,-0.4281558258183735,14
12.862143690615103,-0.46779572241251205,14
12.872145357559594,-0.5550956111206541,14
12.882147024504084,-0.5924913655550126,14
12.892148691448575,-0.6390984856261747,14
12.902150358393065,-0.7090429784321429,14
12.912152025337557,-0.7296192366978254,14
12.922153692282048,-0.7571568854418036,14
12.932155359226538,-0.7995496329242552,14
12.94215702617103,-0.7920918172295355,14
12.95215869311552,-0.7768994108581672,14
12.962160360060011,-0.7413487201685528,14
12.9721620270045,-0.6902807080634118,14
12.982163693948992,-0.6594529547298039,14
12.992165360893482,-0.6028117937708652,14
13.002167027837974,-0.514054418887554,14
13.012168694782464,-0.437410723551817,14
13.022170361726955,-0.3299527959386049,14
13.032172028671445,-0.2236593123526314,14
13.042173695615936,-0.15098421977575702,14
13.052175362560428,-0.03681919487248145,14
13.062177029504918,0.09028245910423424,14
13.07217869644941,0.18692088786832856,14
13.0821803633939,0.31265958404613814,14
13.09218203033839,0.42016926057541937,14
13.10218369728288,0.47695399959252305,14
13.112185364227372,0.5857574621195268,14
13.122187031171862,0.6382259819665298,14
13.132188698116353,0.6845733388521184,14
13.142190365060843,0.7272187371056186,14
13.152192032005335,0.76309055890914,14
13.162193698949826,0.7790109215674711,14
13.172195365894316,0.7790734675391685,14
13.182197032838808,0.7714578221631393,14
13.192198699783297,0.7519531012789485,14
13.202200366727789,0.7254592015733831,14
13.212202033672279,0.6697811029959239,14
13.22220370061677,0.6026853295628352,14
13.23220536756126,0.5802058554324748,14
13.242207034505752,0.512656937816524,14
13.252208701450241,0.45990653890234073,14
13.262210368394733,0.399741459077114,14
13.272212035339225,0.31448948650716335,14
13.282213702283714,0.2694184049215753,14
13.292215369228206,0.20738492393540198,14
13.302217036172696,0.1675497972327774,14
13.312218703117187,0.12061657610318362,14
13.322220370061677,0.08500499715916893,14
13.332222037006169,0.058570483438898945,14
13.342223703950658,0.019420235550196452,14
13.35222537089515,0.03067286879105613,14
13.36222703783964,0.01857862898454085,14
13.372228704784131,0.006838785086503257,14
13.382230371728621,0.019679849348023415,14
13.392232038673113,-0.010131824126734888,14
13.402233705617604,-0.01004693305828149,14
13.412235372562094,-0.003101735653337644,14
13.422237039506586,0.0020093175089722047,14
13.432238706451075,0.01056943682326424,14
13.442240373395567,-0.020475587540793712,14
13.452242040340057,-0.03652037831244397,14
13.462243707284548,-0.06032547047345748,14
13.472245374229038,-0.06794118011369482,14
13.48224704117353,-0.10706400205174188,14
13.49224870811802,-0.14963553859036358,14
13.502250375062511,-0.21230451542317832,14
13.512252042007002,-0.27638225178237297,14
13.522253708951492,-0.30934419569948496,14
13.532255375895984,-0.38371906347565415,14
13.542257042840474,-0.4465668693583466,14
13.552258709784965,-0.5074318760403673,14
13.562260376729455,-0.5613147976647705,14
13.572262043673947,-0.6212172066831906,14
13.582263710618436,-0.6638874621271877,14
13.592265377562928,-0.7107701073640579,14
13.602267044507418,-0.7430121978497637,14
13.61226871145191,-0.7821041396307684,14
13.6222703783964,-0.772326627556523,14
13.63227204534089,-0.7871987920233051,14
13.642273712285382,-0.7455971044225698,14
13.652275379229872,-0.7317012283603623,14
13.662277046174363,-0.6822054704771463,14
13.672278713118853,-0.6457704492537761,14
13.682280380063345,-0.5882216623160946,14
13.692282047007835,-0.49521400889915507,14
13.702283713952326,-0.401003191706207,14
13.712285380896816,-0.31845285401595413,14
13.722287047841307,-0.1887850428942159,14
13.732288714785797,-0.09980679212624181,14
13.742290381730289,0.0246365575077616,14
13.75229204867478,0.11530414941414906,14
13.76229371561927,0.2193004066676728,14
13.772295382563762,0.3276847552670581,14
13.782297049508252,0.4327864942310097,14
13.792298716452743,0.4924805795837253,14
13.802300383397233,0.5736067644196049,14
13.812302050341724,0.6571177168574234,14
13.822303717286214,0.7044053541536465,14
13.832305384230706,0.7463024731976377,14
13.842307051175196,0.7752700029004213,14
13.852308718119687,0.7726630628469372,14
13.862310385064179,0.7706293949571086,14
13.872312052008668,0.7698285825681573,14
13.88231371895316,0.7512033480310039,14
13.89231538589765,0.7215068098280305,14
13.902317052842141,0.6599884519189483,14
13.912318719786631,0.6070654555065754,14
13.922320386731123,0.542264553436596,14
13.932322053675612,0.48199799821856654,14
13.942323720620104,0.414651572158411,14
13.952325387564594,0.37885718873079743,14
13.962327054509085,0.31425675866370223,14
13.972328721453577,0.24419425676527198,14
13.982330388398067,0.1916421854886078,14
13.992332055342558,0.14868093638187,14
14.002333722287048,0.12259415382068081,14
14.01233538923154,0.07673374132507535,14
14.02233705617603,0.04941191768704777,14
14.032338723120521,0.019605490580578318,14
14.04234039006501,0.02603472148785454,14
14.052342057009502,0.02367896719705303,14
14.062343723953992,0.007208363616935404,14
14.072345390898484,0.0003130263068575851,14
14.082347057842973,0.01696304079228686,14
14.092348724787465,-0.020683914430016166,14
14.102350391731957,-0.013390466376977364,14
14.112352058676446,0.02465598590809645,14
14.122353725620938,0.002762422685854719,14
14.132355392565428,-0.03423895879578357,14
14.14235705950992,-0.023433580894938494,14
14.152358726454409,-0.09606978821349513,14
14.1623603933989,-0.1055727623543707,14
14.17236206034339,-0.14001369792046567,14
14.182363727287882,-0.18238176203550205,14
14.192365394232372,-0.2206206983331062,14
14.202367061176863,-0.30134112591289186,14
14.212368728121355,-0.31937170461858294,14
14.222370395065845,-0.3815688268766792,14
14.232372062010336,-0.46471995974398345,14
14.242373728954826,-0.5177810664114709,14
14.252375395899318,-0.5695413261297182,14
14.262377062843807,-0.6279301992284595,14
14.272378729788299,-0.6731183471723406,14
14.282380396732789,-0.7183267101486281,14
14.29238206367728,-0.7593073316697996,14
14.30238373062177,-0.7666378412022287,14
14.312385397566262,-0.7761346171087039,14
14.322387064510753,-0.7673261106508222,14
14.332388731455243,-0.7458697020418773,14
14.342390398399735,-0.725204413560831,14
14.352392065344224,-0.6924945794777569,14
14.362393732288716,-0.6238764004624222,14
14.372395399233206,-0.5543884013952921,14
14.382397066177697,-0.4609419716536164,14
14.392398733122187,-0.38227900170507506,14
14.402400400066679,-0.2806952134793233,14
14.412402067011168,-0.17632776878756765,14
14.42240373395566,-0.06228895752023193,14
14.432405400900151,0.04826564537489744,14
14.442407067844641,0.16771422652429488,14
14.452408734789133,0.25483165662935725,14
14.462410401733623,0.36434692517555173,14
14.472412068678114,0.45003187450818277,14
14.482413735622604,0.5123955835915966,14
14.492415402567095,0.6119854597693701,14
14.502417069511585,0.6765013448946904,14
14.512418736456077,0.713823762255871,14
14.522420403400567,0.7444355028153061,14
14.532422070345058,0.7685354490459366,14
14.542423737289548,0.7949064587506519,14
14.55242540423404,0.7754937123241964,14
14.562427071178531,0.7664893677804064,14
14.57242873812302,0.7361234212343991,14
14.582430405067512,0.6919954742614832,14
14.592432072012002,0.6511326805360401,14
14.602433738956494,0.6045972173900614,14
14.612435405900984,0.5378856138109008,14
14.622437072845475,0.46720017521366813,14
14.632438739789965,0.396769857527469,14
14.642440406734456,0.3465768994337368,14
14.652442073678946,0.2825830445921429,14
14.662443740623438,0.22660967112893643,14
14.67244540756793,0.1979424452874301,14
14.68244707451242,0.126182219962452,14
14.69244874145691,0.09425642570961922,14
14.7024504084014,0.06089117469880133,14
14.712452075345892,0.05183982281809522,14
14.722453742290382,0.018479817762237807,14
14.732455409234873,0.040135993202975645,14
14.742457076179363,0.01961447009365988,14
14.752458743123855,0.008429348737849965,14
14.762460410068345,-4.218534594880262e-05,14
14.772462077012836,0.005393084982423552,14
14.782463743957328,0.005703911500981324,14
14.792465410901817,0.027886716695828026,14
14.802467077846309,-0.012718289298982687,14
14.812468744790799,0.00593572550589774,14
14.82247041173529,-0.03494770333242186,14
14.83247207867978,-0.04204463593622622,14
14.842473745624272,-0.07070249974635849,14
14.852475412568761,-0.10595631574369788,14
14.862477079513253,-0.12464302116595963,14
14.872478746457743,-0.20166127588688162,14
14.882480413402234,-0.2272080990431135,14
14.892482080346724,-0.2848085045183353,14
14.902483747291216,-0.3661274304606128,14
14.912485414235707,-0.4202792741688869,14
14.922487081180197,-0.47992766105778156,14
14.932488748124689,-0.5275788736877495,14
14.942490415069178,-0.6030184598082804,14
14.95249208201367,-0.6474149100802937,14
14.96249374895816,-0.6954732324557589,14
14.972495415902651,-0.723879997176684,14
14.982497082847141,-0.7492235615523426,14
14.992498749791633,-0.7670019526723496,14
15.002500416736122,-0.7961334829013524,14
15.012502083680614,-0.7636748870679844,14
15.022503750625106,-0.7589264382136299,14
15.032505417569595,-0.7254555802020989,14
15.042507084514087,-0.6580240769912226,14
15.052508751458577,-0.5893084321398593,14
15.062510418403068,-0.5298788003733117,14
15.072512085347558,-0.45332865651510035,14
15.08251375229205,-0.3458641404696466,14
15.09251541923654,-0.2342686531699705,14
15.102517086181031,-0.14339291429314957,14
15.11251875312552,-0.022652846827073983,14
15.122520420070012,0.07662988711800241,14
15.132522087014504,0.18775021903584468,14
15.142523753958994,0.2987701394521135,14
15.152525420903485,0.37737822763991535,14
15.162527087847975,0.48108297035169745,14
15.172528754792467,0.5529277513899258,14
15.182530421736956,0.6333574522349911,14
15.192532088681448,0.6771191065778188,14
15.202533755625938,0.7383050025190161,14
15.21253542257043,0.774432658835659,14
15.222537089514919,0.7638606098495335,14
15.23253875645941,0.7615683191368487,14
15.2425404234039,0.7838297768225719,14
15.252542090348392,0.7368676410831134,14
15.262543757292883,0.7158277835307291,14
15.272545424237373,0.681252129590345,14
15.282547091181865,0.6286582875480343,14
15.292548758126355,0.5648088280580605,14
15.302550425070846,0.5228461171151207,14
15.312552092015336,0.4593703108441772,14
15.322553758959828,0.4055635603455276,14
15.332555425904317,0.33853168730588884,14
15.342557092848809,0.2834966630881068,14
15.352558759793299,0.2101861424117387,14
15.36256042673779,0.17492038915997873,14
15.372562093682282,0.11758068506078585,14
15.382563760626772,0.07394315215313188,14
15.392565427571263,0.06565295869180023,14
15.402567094515753,0.033652285795561496,14
15.412568761460244,0.019937113514932815,14
15.422570428404734,0.009136472596667028,14
15.432572095349226,-0.006982504605162344,14
15.442573762293716,0.00655760972651164,14
15.452575429238207,-0.008843718196132179,14
15.462577096182697,0.00986436094297731,14
15.472578763127188,0.005072009751068258,14
15.48258043007168,-0.002135303734381649,14
15.49258209701617,-0.01117157015723274,14
15.502583763960661,-0.019768876822304174,14
15.512585430905151,-0.036251799329060766,14
15.522587097849643,-0.05126539480285629,14
15.532588764794133,-0.05638882765018251,14
15.542590431738624,-0.09414527289189635,14
15.552592098683114,-0.14447522678071495,14
15.562593765627605,-0.21283189183023923,14
15.572595432572095,-0.27268089259957556,14
15.582597099516587,-0.3100372641768584,14
15.592598766461077,-0.387296603247532,14
15.602600433405568,-0.4367255245733989,14
15.61260210035006,-0.48461483956346335,14
15.62260376729455,-0.5554703960516609,14
15.632605434239041,-0.6210220519750128,14
15.64260710118353,-0.6565201311902665,14
15.652608768128022,-0.709365846568599,14
15.662610435072512,-0.7197182803787803,14
15.672612102017004,-0.7610174278358348,14
15.682613768961494,-0.7775058779709166,14
15.692615435905985,-0.7758752018944244,14
15.702617102850475,-0.7490574654519837,14
15.712618769794966,-0.7396092629466096,14
15.722620436739458,-0.7093992580298629,14
15.732622103683948,-0.6445113892489776,14
15.74262377062844,-0.5789355624754834,14
15.752625437572929,-0.5006556784586054,14
15.76262710451742,-0.4276567306858976,14
15.77262877146191,-0.3010657879272288,14
15.782630438406402,-0.24243361422473142,14
15.792632105350892,-0.09726578417182469,14
15.802633772295383,0.0028701024533420647,14
15.812635439239873,0.10094971681153693,14
15.822637106184365,0.21886348933808167,14
15.832638773128856,0.331894834987133,14
15.842640440073346,0.4162957412698148,14
15.852642107017838,0.5199547858359551,14
15.862643773962327,0.6022003058341088,14
15.872645440906819,0.6303071977858671,14
15.882647107851309,0.7097363385735634,14
15.8926487747958,0.7371330241548367,14
15.90265044174029,0.7684889720798921,14
15.912652108684782,0.7721362471852247,14
15.922653775629271,0.7715023989118813,14
15.932655442573763,0.7648260515276374,14
15.942657109518253,0.7376648666386643,14
15.952658776462744,0.7138928277297124,14
15.962660443407236,0.6530144786760611,14
15.972662110351726,0.6050528825853821,14
15.982663777296217,0.5315530899109264,14
15.992665444240707,0.48943363555268654,14
16.002667111185197,0.43372978422454234,14
16.01266877812969,0.3737664832641495,14
16.02267044507418,0.3128672265901932,14
16.03267211201867,0.2592515663348103,14
16.04267377896316,0.20775747203480263,14
16.052675445907653,0.163974044727163,14
16.062677112852143,0.12436046946615227,14
16.072678779796632,0.08802663806188255,14
16.082680446741126,0.05699600787887238,14
16.092682113685616,0.023808271291051404,14
16.102683780630105,0.02355003214516991,14
16.112685447574595,-0.002492525648393959,14
16.12268711451909,-0.006617120049541861,14
16.132688781463578,0.022183968602126156,14
16.142690448408068,0.009295102194127706,14
16.152692115352558,0.013156954370951289,14
16.16269378229705,-0.002269817300142295,14
16.17269544924154,-0.007876614862040564,14
16.18269711618603,-0.016641228396245804,14
16.192698783130524,-0.025875273128504017,14
16.202700450075014,-0.013861874447884562,14
16.212702117019504,-0.06339666893236001,14
16.222703783963993,-0.07792710991429798,14
16.232705450908487,-0.12718289425573576,14
16.242707117852976,-0.16933897262697054,14
16.252708784797466,-0.24059043164982752,14
16.262710451741956,-0.2656841528310621,14
16.27271211868645,-0.335186035640659,14
16.28271378563094,-0.40024620162163893,14
16.29271545257543,-0.4504585780912235,14
16.302717119519922,-0.5176915957195748,14
16.312718786464412,-0.5555847807329068,14
16.322720453408902,-0.6352559593072358,14
16.33272212035339,-0.6654445005664006,14
16.342723787297885,-0.7345226910164848,14
16.352725454242375,-0.7446616607974864,14
16.362727121186865,-0.7737858626437188,14
16.372728788131354,-0.7509040395964786,14
16.382730455075848,-0.7558271662342338,14
16.392732122020337,-0.759625881190978,14
16.402733788964827,-0.7239847231709944,14
16.41273545590932,-0.6774788534220149,14
16.42273712285381,-0.6282534528583019,14
16.4327387897983,-0.5587727368910198,14
16.44274045674279,-0.47463925565733717,14
16.452742123687283,-0.388044810870332,14
16.462743790631773,-0.2723470539063415,14
16.472745457576263,-0.17000051308371084,14
16.482747124520753,-0.09357309014342469,14
16.492748791465246,0.026713714880902337,14
16.502750458409736,0.13897021193622983,14
16.512752125354226,0.24930447697395683,14
16.522753792298715,0.36089765215853287,14
16.53275545924321,0.44486662404249483,14
16.5427571261877,0.5184640577928198,14
16.55275879313219,0.5913963418368433,14
16.56276046007668,0.6637243570488497,14
16.57276212702117,0.7224399823459772,14
16.58276379396566,0.7631041283530337,14
16.59276546091015,0.7703848883487785,14
16.602767127854644,0.7838868857718752,14
16.612768794799134,0.7843104570330164,14
16.622770461743624,0.7473643189610054,14
16.632772128688114,0.7216377675848757,14
16.642773795632607,0.6826849272388955,14
16.652775462577097,0.6516071549673615,14
16.662777129521587,0.5875854672237275,14
16.67277879646608,0.5349937258446885,14
16.68278046341057,0.46742409092294485,14
16.69278213035506,0.425009177143736,14
16.70278379729955,0.3588340989537214,14
16.712785464244043,0.2889643643544575,14
16.722787131188532,0.2479690116401997,14
16.732788798133022,0.1873161561932057,14
16.742790465077512,0.13955459291630953,14
16.752792132022005,0.07918006442266395,14
16.762793798966495,0.07346806449820206,14
16.772795465910985,0.03544968757706449,14
16.782797132855478,0.033052189620419566,14
16.792798799799968,0.02269175048850553,14
16.802800466744458,0.00686377109448485,14
16.812802133688947,0.028229725104444357,14
16.82280380063344,0.015987886742148624,14
16.83280546757793,0.006098601371347407,14
16.84280713452242,0.00660003665092614,14
16.85280880146691,-0.01319011462059254,14
16.862810468411404,0.022058591535825574,14
16.872812135355893,-0.0152329814761928,14
16.882813802300383,-0.022668919109011903,14
16.892815469244876,-0.056550357418968425,14
16.902817136189366,-0.08779349447594573,14
16.912818803133856,-0.10899181530721731,14
16.922820470078346,-0.1394015115122609,14
16.93282213702284,-0.16570732596510315,14
16.94282380396733,-0.2447080714368523,14
16.95282547091182,-0.28841532008494947,14
16.96282713785631,-0.3583869950498533,14
16.972828804800802,-0.414738261044799,14
16.98283047174529,-0.46199430732305385,14
16.99283213868978,-0.5342094274478645,14
17.002833805634275,-0.5889736254356124,14
17.012835472578764,-0.6394417983224612,14
17.022837139523254,-0.7119992718629371,14
17.032838806467744,-0.730963032383821,14
17.042840473412237,-0.7552534972540126,14
17.052842140356727,-0.7891130401830883,14
17.062843807301217,-0.8032723306358697,14
17.072845474245707,-0.7929477607879357,14
17.0828471411902,-0.7543191320748878,14
17.09284880813469,-0.7170706257562693,14
17.10285047507918,-0.6758936625678739,14
17.112852142023673,-0.6100438178373573,14
17.122853808968163,-0.5319082164977526,14
17.132855475912653,-0.43897890660492167,14
17.142857142857142,-0.3752761728015886,14
17.152858809801636,-0.26023614467222655,14
17.162860476746125,-0.15425705105819448,14
17.172862143690615,-0.030607869037067463,14
17.182863810635105,0.07623928257915341,14
17.1928654775796,0.17972338408626454,14
17.202867144524088,0.2810768930606111,14
17.212868811468578,0.3760945137813853,14
17.222870478413068,0.45311430879197623,14
17.23287214535756,0.5475545719550864,14
17.24287381230205,0.6334278057264404,14
17.25287547924654,0.6627456432682303,14
17.262877146191034,0.7398009017586438,14
17.272878813135524,0.7659983171057589,14
17.282880480080014,0.786902038181624,14
17.292882147024503,0.7956976182596889,14
17.302883813968997,0.7783496322762553,14
17.312885480913486,0.7372985146567504,14
17.322887147857976,0.7251716860359911,14
17.332888814802466,0.6792487071819341,14
17.34289048174696,0.6194782230604942,14
17.35289214869145,0.5773168301664452,14
17.36289381563594,0.5035419141921291,14
17.372895482580432,0.4580404950159872,14
17.382897149524922,0.39736398269916556,14
17.392898816469412,0.33633538200387114,14
17.4029004834139,0.25967139982678167,14
17.412902150358395,0.2250682273359709,14
17.422903817302885,0.16037512440166787,14
17.432905484247375,0.12227052741994049,14
17.442907151191864,0.11003127496687466,14
17.452908818136358,0.062323034585118106,14
17.462910485080847,0.023119909414420832,14
17.472912152025337,0.03228598564204883,14
17.48291381896983,0.010845209360766656,14
17.49291548591432,0.021917855126571743,14
17.50291715285881,-0.006970113629277462,14
17.5129188198033,-0.01618767798689726,14
17.522920486747793,-0.004707964545793955,14
17.532922153692283,-0.00021001037642578817,14
17.542923820636773,-0.013004466096562405,14
17.552925487581263,-0.018798201410909474,14
17.562927154525756,-0.024319181209962633,14
17.572928821470246,-0.037898641155617314,14
17.582930488414735,-0.06135176132459508,14
17.59293215535923,-0.09493283132255706,14
17.60293382230372,-0.10993279692606289,14
17.61293548924821,-0.16489436329354382,14
17.622937156192698,-0.201248425866024,14
17.63293882313719,-0.2581571538419068,14
17.64294049008168,-0.3155722944655468,14
17.65294215702617,-0.35513908103760605,14
17.66294382397066,-0.41386113353443377,14
17.672945490915154,-0.5099221414828656,14
17.682947157859644,-0.559113556784176,14
17.692948824804134,-0.6036145785534044,14
17.702950491748627,-0.6404284905273121,14
17.712952158693117,-0.6946124102788842,14
17.722953825637607,-0.7484032482464137,14
17.732955492582096,-0.7723603464785107,14
17.74295715952659,-0.7660749651826206,14
17.75295882647108,-0.7839371876242365,14
17.76296049341557,-0.7705714758743183,14
17.77296216036006,-0.7440613454560732,14
17.782963827304552,-0.7133143606319877,14
17.792965494249042,-0.6562883073886674,14
17.802967161193532,-0.5844184276294723,14
17.812968828138025,-0.5019908240248403,14
17.822970495082515,-0.4043897623508776,14
17.832972162027005,-0.3115660248904357,14
17.842973828971495,-0.22519807712868833,14
17.852975495915988,-0.11733308649507879,14
17.862977162860478,-0.013941407493968579,14
17.872978829804968,0.10019223838854117,14
17.882980496749457,0.22666275951770942,14
17.89298216369395,0.3210396741062159,14
17.90298383063844,0.42208844744455976,14
17.91298549758293,0.4938494305020758,14
17.92298716452742,0.5771260450642783,14
17.932988831471913,0.6385508948497421,14
17.942990498416403,0.6983710581143019,14
17.952992165360893,0.7488535141629823,14
17.962993832305386,0.7622101899465961,14
17.972995499249876,0.7695257719382551,14
17.982997166194366,0.7999706376663555,14
17.992998833138856,0.7698033968828101,14
18.00300050008335,0.7423917855459655,14
18.01300216702784,0.7101668237653376,14
18.02300383397233,0.6731362062845765,14
18.03300550091682,0.6139584695443426,14
18.04300716786131,0.5479430034592083,14
18.0530088348058,0.4999696130096501,14
18.06301050175029,0.42727245744560766,14
18.073012168694785,0.3456541393467928,14
18.083013835639274,0.3225082010639745,14
18.093015502583764,0.2528846863524056,14
18.103017169528254,0.20278528977904817,14
18.113018836472747,0.17644118370411802,14
18.123020503417237,0.12065000805432209,14
18.133022170361727,0.08367968026317822,14
18.143023837306217,0.03864922281691621,14
18.15302550425071,0.044376312908627945,14
18.1630271711952,0.023051575172481638,14
18.17302883813969,0.0058144423960230715,14
18.183030505084183,-0.0031376544524616074,14
18.193032172028673,-0.003736489276239266,14
18.203033838973163,-0.010576372755946134,14
18.213035505917652,-0.009632469960181625,14
18.223037172862146,-0.011288581950814992,14
18.233038839806635,-0.011904175926092364,14
18.243040506751125,-0.013448454951734957,14
18.253042173695615,-0.033974504274641076,14
18.26304384064011,-0.041135276611047676,14
18.273045507584598,-0.07537762746385458,14
18.283047174529088,-0.08298123537824645,14
18.29304884147358,-0.12097155656994377,14
18.30305050841807,-0.16872432163869575,14
18.31305217536256,-0.2020572591808135,14
18.32305384230705,-0.270440927435572,14
18.333055509251544,-0.33287294406385304,14
18.343057176196034,-0.370863509335267,14
18.353058843140523,-0.44421387322060624,14
18.363060510085013,-0.5308113746604944,14
18.373062177029507,-0.5494717525031124,14
18.383063843973996,-0.636367382302924,14
18.393065510918486,-0.6715443122724827,14
18.40306717786298,-0.716158097521276,14
18.41306884480747,-0.7463668663970694,14
18.42307051175196,-0.7579361140427937,14
18.43307217869645,-0.7548131687354604,14
18.443073845640942,-0.7587298958919229,14
18.453075512585432,-0.7563775140965899,14
18.463077179529922,-0.7226580073238277,14
18.47307884647441,-0.6811900214513614,14
18.483080513418905,-0.627441985746241,14
18.493082180363395,-0.5708421712026042,14
18.503083847307884,-0.4713112594186427,14
18.513085514252378,-0.3990773499346808,14
18.523087181196868,-0.2915005636571442,14
18.533088848141357,-0.19106672075774048,14
18.543090515085847,-0.07672981875689,14
18.55309218203034,0.03448521068631781,14
18.56309384897483,0.1402669415240055,14
18.57309551591932,0.2372779353761032,14
18.58309718286381,0.36449038089340174,14
18.593098849808303,0.45015531567844813,14
18.603100516752793,0.5179324805254216,14
18.613102183697283,0.5898331605519325,14
18.623103850641776,0.6560101974633967,14
18.633105517586266,0.7179227726376212,14
18.643107184530756,0.7402736522525899,14
18.653108851475245,0.7593364825151518,14
18.66311051841974,0.7814024262656805,14
18.67311218536423,0.7649363889487535,14
18.68311385230872,0.7532388901033077,14
18.693115519253208,0.7333388333733302,14
18.7031171861977,0.6734892977731214,14
18.71311885314219,0.6560875071386593,14
18.72312052008668,0.5854805916167185,14
18.73312218703117,0.5417848260274092,14
18.743123853975664,0.48252669812517457,14
18.753125520920154,0.4096807379108763,14
18.763127187864644,0.3476054852792652,14
18.773128854809137,0.2889328358784172,14
18.783130521753627,0.2374176214298855,14
18.793132188698117,0.19584441756969717,14
18.803133855642606,0.1396116289671337,14
18.8131355225871,0.09508559954768701,14
18.82313718953159,0.08313784761008751,14
18.83313885647608,0.03766030154617001,14
18.84314052342057,0.03053327444712589,14
18.853142190365062,-0.00949098421146272,14
18.863143857309552,-0.020338245189373463,14
18.873145524254042,-0.013129959572027828,14
18.883147191198535,0.00336438902009188,14
18.893148858143025,0.00733444845209117,14
18.903150525087515,-0.003061466135412418,14
18.913152192032005,0.002126522166008029,14
18.923153858976498,-0.011271344368524751,14
18.933155525920988,0.008107282984372362,14
18.943157192865478,-0.007772427387309159,14
18.953158859809967,-0.03527930818284507,14
18.96316052675446,-0.06542072469674924,14
18.97316219369895,-0.09660281429439273,14
18.98316386064344,-0.14290083099347398,14
18.993165527587934,-0.17398764332557168,14
19.003167194532423,-0.216583366229749,14
19.013168861476913,-0.27793817832430917,14
19.023170528421403,-0.34333003705348486,14
19.033172195365896,-0.42964687257066614,14
19.043173862310386,-0.4666936871586575,14
19.053175529254876,-0.5356121340969244,14
19.063177196199366,-0.5855047466772029,14
19.07317886314386,-0.6445841703211884,14
19.08318053008835,-0.6869065446810108,14
19.09318219703284,-0.7434694315293767,14
19.103183863977332,-0.753605428860023,14
19.11318553092182,-0.768749466256777,14
19.12318719786631,-0.7564061049096823,14
19.1331888648108,-0.7493296168957131,14
19.143190531755295,-0.7603921231850818,14
19.153192198699784,-0.7339349256290525,14
19.163193865644274,-0.6549783420114195,14
19.173195532588764,-0.6115269263235293,14
19.183197199533257,-0.5515819448433952,14
19.193198866477747,-0.46525792351121076,14
19.203200533422237,-0.3564636476772851,14
19.21320220036673,-0.25904730128155856,14
19.22320386731122,-0.16910536882832872,14
19.23320553425571,-0.05696905977657873,14
19.2432072012002,0.06503253194662205,14
19.253208868144693,0.18013799829880542,14
19.263210535089183,0.2857446548023049,14
19.273212202033672,0.38798604447225143,14
19.283213868978162,0.46490287578751116,14
19.293215535922656,0.5529026859248062,14
19.303217202867145,0.5994217403165929,14
19.313218869811635,0.6940924677752368,14
19.32322053675613,0.7247189972399258,14
19.33322220370062,0.7540832836787531,14
19.343223870645108,0.7774796177008234,14
19.353225537589598,0.7677895140760153,14
19.36322720453409,0.7861153292826452,14
19.37322887147858,0.7454686496771872,14
19.38323053842307,0.7321836211788729,14
19.39323220536756,0.691618183167968,14
19.403233872312054,0.6318416518256899,14
19.413235539256544,0.5835335087841771,14
19.423237206201033,0.5109910784421757,14
19.433238873145523,0.4676194283933453,14
19.443240540090017,0.3803424036062593,14
19.453242207034506,0.33690652341760974,14
19.463243873978996,0.27954831685658027,14
19.47324554092349,0.22455454306019718,14
19.48324720786798,0.15427703010637348,14
19.49324887481247,0.12249640863502359,14
19.50325054175696,0.09728245017148533,14
19.513252208701452,0.06693289830878489,14
19.523253875645942,0.038737911593247056,14
19.53325554259043,0.02574418773598943,14
19.54325720953492,0.010182807999267289,14
19.553258876479415,0.015803251041867944,14
19.563260543423905,0.010834075461597134,14
19.573262210368394,-0.009566867284569328,14
19.583263877312888,0.0011675482825633217,14
19.593265544257378,-0.007761474675280314,14
19.603267211201867,0.010482517726040154,14
19.613268878146357,-0.011158984314249776,14
19.62327054509085,-0.019327699291437923,14
19.63327221203534,-0.04126071722122213,14
19.64327387897983,-0.05738322616320898,14
19.65327554592432,-0.06399240079451639,14
19.663277212868813,-0.11383429170682566,14
19.673278879813303,-0.14300940387976455,14
19.683280546757793,-0.18686999685495304,14
19.693282213702286,-0.24603592974610586,14
19.703283880646776,-0.29953649256217835,14
19.713285547591266,-0.3653070819875117,14
19.723287214535755,-0.42500174839555055,14
19.73328888148025,-0.4827505362352352,14
19.74329054842474,-0.5160184349528074,14
19.75329221536923,-0.6016089485026535,14
19.763293882313718,-0.6631882312894434,14
19.77329554925821,-0.6860912308418086,14
19.7832972162027,-0.7325291142645072,14
19.79329888314719,-0.776426525097514,14
19.803300550091684,-0.7761010431817498,14
19.813302217036174,-0.7743739279399166,14
19.823303883980664,-0.7783218941837023,14
19.833305550925154,-0.757049822669428,14
19.843307217869647,-0.7009070268878859,14
19.853308884814137,-0.6391883913956852,14
19.863310551758627,-0.5763539861590647,14
19.873312218703116,-0.5013745929383302,14
19.88331388564761,-0.43543138281059734,14
19.8933155525921,-0.3385083678524397,14
19.90331721953659,-0.22139704731813523,14
19.913318886481083,-0.10895382095839136,14
19.923320553425572,-0.008783582626136321,14
19.933322220370062,0.09365883456884219,14
19.943323887314552,0.2213752447700163,14
19.953325554259045,0.31167824904580566,14
19.963327221203535,0.3914531556465029,14
19.973328888148025,0.5006679526127255,14
19.983330555092515,0.5632639647769146,14
19.993332222037008,0.6569937452723287,14
20.003333888981498,0.6799878988171155,14
20.013335555925988,0.7395605201921183,14
20.02333722287048,0.7846438365204036,14
20.03333888981497,0.7564983736263069,14
20.04334055675946,0.7733464410513575,14
20.05334222370395,0.7658315146230469,14
20.063343890648444,0.7374918644070522,14
20.073345557592933,0.701807115171043,14
20.083347224537423,0.6702190049829138,14
20.093348891481913,0.6157454866022158,14
20.103350558426406,0.5774840607976759,14
20.113352225370896,0.48944545532846506,14
20.123353892315386,0.4382686068016328,14
20.133355559259876,0.36770759878725556,14
20.14335722620437,0.3151466293408231,14
20.15335889314886,0.2740652061285663,14
20.16336056009335,0.2157495333240782,14
20.173362227037842,0.17562577040146837,14
20.18336389398233,0.11981308524762374,14
20.19336556092682,0.08244779014980051,14
20.20336722787131,0.048948296304213885,14
20.213368894815805,0.026505128613597155,14
20.223370561760294,0.018052258638088653,14
20.233372228704784,0.004601126086965661,14
20.243373895649274,-0.012755919165394359,14
20.253375562593767,0.012136736058384862,14
20.263377229538257,0.0031681503008099696,14
20.273378896482747,-0.002122415679036083,14
20.28338056342724,0.013230168863408357,14
20.29338223037173,0.019519277264513944,14
20.30338389731622,-0.011147521487651281,14
20.31338556426071,-0.03965949892342005,14
20.323387231205203,-0.03334360747995565,14
20.333388898149693,-0.060989820297007,14
20.343390565094182,-0.09043562568947831,14
20.353392232038672,-0.11696041903353985,14
20.363393898983166,-0.17276997381227802,14
20.373395565927655,-0.21789128816090275,14
20.383397232872145,-0.2643543179566965,14
20.39339889981664,-0.3141399561362358,14
20.40340056676113,-0.38323311697047135,14
20.413402233705618,-0.4469059201487235,14
20.423403900650108,-0.5110872366675709,14
20.4334055675946,-0.5611606643651603,14
20.44340723453909,-0.6183134570241924,14
20.45340890148358,-0.6924267049826719,14
20.46341056842807,-0.705733030069875,14
20.473412235372564,-0.7481121647867538,14
20.483413902317054,-0.7688217953323716,14
20.493415569261543,-0.7874581784360826,14
20.503417236206037,-0.7949513725737466,14
20.513418903150527,-0.7539722808702988,14
20.523420570095016,-0.7276712102822247,14
20.533422237039506,-0.6987814094730523,14
20.543423903984,-0.6415379363879163,14
20.55342557092849,-0.566724611017584,14
20.56342723787298,-0.47963244585549075,14
20.57342890481747,-0.39450003958388613,14
20.583430571761962,-0.2881048878654538,14
20.593432238706452,-0.2111588802905833,14
20.60343390565094,-0.0788493211154105,14
20.613435572595435,0.02647053595808129,14
20.623437239539925,0.14647923856926545,14
20.633438906484415,0.2277823638724866,14
20.643440573428904,0.32214016076324503,14
20.653442240373398,0.44432591983415193,14
20.663443907317887,0.5238188557377285,14
20.673445574262377,0.593208119785978,14
20.683447241206867,0.667068879974452,14
20.69344890815136,0.7081747729029579,14
20.70345057509585,0.7308430445359566,14
20.71345224204034,0.7786987136175723,14
20.723453908984833,0.7738662566168998,14
20.733455575929323,0.7697974654786655,14
20.743457242873813,0.7501639502271652,14
20.753458909818303,0.7360286417603796,14
20.763460576762796,0.7091085675300208,14
20.773462243707286,0.6465196100002423,14
20.783463910651776,0.5980753670005909,14
20.793465577596265,0.5409836045917222,14
20.80346724454076,0.4875239690693664,14
20.81346891148525,0.4203008425311792,14
20.82347057842974,0.3486881133079082,14
20.83347224537423,0.30164001665916684,14
20.84347391231872,0.2473484719386452,14
20.85347557926321,0.18885284188690868,14
20.8634772462077,0.14161821682575773,14
20.873478913152194,0.11457779878649642,14
20.883480580096684,0.07528460192412106,14
20.893482247041174,0.04278838918300759,14
20.903483913985664,0.01979087877122123,14
20.913485580930157,0.017196017379233243,14
20.923487247874647,0.008990650146416715,14
20.933488914819137,0.008418048809752672,14
20.943490581763626,-0.014908572517261541,14
20.95349224870812,0.0012143746784238217,14
20.96349391565261,0.0023485634761464297,14
20.9734955825971,0.009689692916379306,14
20.983497249541593,-0.028696684950435328,14
20.993498916486082,-0.0024005374964353107,14
21.003500583430572,-0.012709592606660934,14
21.013502250375062,-0.022169284452493058,14
21.023503917319555,-0.05664053638240708,14
21.033505584264045,-0.09867154401581613,14
21.043507251208535,-0.1374386016437946,14
21.053508918153025,-0.16602356814910033,14
21.063510585097518,-0.2349145581084963,14
21.073512252042008,-0.2874719827153042,14
21.083513918986498,-0.34734129565980026,14
21.09351558593099,-0.39803289106245304,14
21.10351725287548,-0.4501491721592912,14
21.11351891981997,-0.5055746171435906,14
21.12352058676446,-0.5843749248384497,14
21.133522253708954,-0.6262551717368156,14
21.143523920653443,-0.6832062772326549,14
21.153525587597933,-0.70753309969517,14
21.163527254542423,-0.7482853490116228,14
21.173528921486916,-0.782144066592482,14
21.183530588431406,-0.7710762221415266,14
21.193532255375896,-0.780956030344567,14
21.20353392232039,-0.7572523877335279,14
21.21353558926488,-0.7344951329566869,14
21.22353725620937,-0.6833867397550938,14
21.23353892315386,-0.6152807930356168,14
21.243540590098352,-0.549835793220613,14
21.25354225704284,-0.4425389193601934,14
21.26354392398733,-0.36404689338621626,14
21.27354559093182,-0.2706418145687181,14
21.283547257876315,-0.16489829358669833,14
21.293548924820804,-0.06343258501675003,14
21.303550591765294,0.058949177105738756,14
21.313552258709787,0.16773975702499858,14
21.323553925654277,0.2515142327840282,14
21.333555592598767,0.35779232519290544,14
21.343557259543257,0.47767045776635764,14
21.35355892648775,0.5357592213192421,14
21.36356059343224,0.6248187865167685,14
21.37356226037673,0.6915645906966035,14
21.38356392732122,0.70469006038979,14
21.393565594265713,0.7485017576275066,14
21.403567261210203,0.7786466416338772,14
21.413568928154692,0.7678474559904716,14
21.423570595099186,0.7678126944236014,14
21.433572262043675,0.7546940877166186,14
21.443573928988165,0.7130943760326138,14
21.453575595932655,0.684261246078397,14
21.46357726287715,0.6398362664682562,14
21.473578929821638,0.5918255349529529,14
21.483580596766128,0.5271900487924543,14
21.493582263710618,0.48159845428278486,14
21.50358393065511,0.4057701238752462,14
21.5135855975996,0.3399346620702948,14
21.52358726454409,0.28747590605193285,14
21.533588931488584,0.23225506758698505,14
21.543590598433074,0.18815533846347,14
21.553592265377564,0.12827913037847855,14
21.563593932322053,0.08831122081382443,14
21.573595599266547,0.08260952926267198,14
21.583597266211036,0.04622773425170915,14
21.593598933155526,0.022215452226214457,14
21.603600600100016,0.009144895860336583,14
21.61360226704451,0.007722916594348723,14
21.623603933989,0.0012293448272087096,14
21.63360560093349,0.014311758412074629,14
21.64360726787798,-0.010247347187210655,14
21.653608934822472,-0.008518609519714561,14
21.663610601766962,-0.006953920598210278,14
21.67361226871145,-0.013100586611027804,14
21.683613935655945,-0.02617032128241282,14
21.693615602600435,-0.024482659140542457,14
21.703617269544925,-0.042396223142701216,14
21.713618936489414,-0.07068884086865306,14
21.723620603433908,-0.11738161102827338,14
21.733622270378397,-0.130994598618124,14
21.743623937322887,-0.1901819614400553,14
21.753625604267377,-0.2395853254597212,14
21.76362727121187,-0.306623794203746,14
21.77362893815636,-0.35106363268723273,14
21.78363060510085,-0.42415477117602995,14
21.793632272045343,-0.49116914990914157,14
21.803633938989833,-0.5439304832394409,14
21.813635605934323,-0.6064553588871325,14
21.823637272878813,-0.6458919640914942,14
21.833638939823306,-0.7110316869957125,14
21.843640606767796,-0.7451240841626233,14
21.853642273712286,-0.7569509730693883,14
21.863643940656775,-0.7733386983515397,14
21.87364560760127,-0.7722896272257362,14
21.88364727454576,-0.7773899456129795,14
21.893648941490248,-0.7304493153808331,14
21.90365060843474,-0.707932399995596,14
21.91365227537923,-0.6545307646585391,14
21.92365394232372,-0.5945279048865265,14
21.93365560926821,-0.4988521702761552,14
21.943657276212704,-0.42925903696985057,14
21.953658943157194,-0.34876220355220056,14
21.963660610101684,-0.23139486857300764,14
21.973662277046174,-0.142146230019734,14
21.983663943990667,-0.01161569438950982,14
21.993665610935157,0.07698874741867587,14
22.003667277879646,0.19406145867721653,14
22.01366894482414,0.287660798627111,14
22.02367061176863,0.39038917037234017,14
22.03367227871312,0.4831756734157005,14
22.04367394565761,0.5740260305982318,14
22.053675612602103,0.6331753177041848,14
22.063677279546592,0.6873948110431015,14
22.073678946491082,0.741032762594754,14
22.083680613435572,0.7742315548069555,14
22.093682280380065,0.7663398401159083,14
22.103683947324555,0.7899604592527006,14
22.113685614269045,0.7778046348078834,14
22.123687281213538,0.7446144925419179,14
22.133688948158028,0.6964264957515192,14
22.143690615102518,0.6725970267870839,14
22.153692282047007,0.6283459846391195,14
22.1636939489915,0.5677689236572236,14
22.17369561593599,0.5310099332364134,14
22.18369728288048,0.43417744143948434,14
22.19369894982497,0.3931452948658562,14
22.203700616769463,0.322640259370345,14
22.213702283713953,0.269325014109124,14
22.223703950658443,0.21013348226771245,14
22.233705617602936,0.16374173680857354,14
22.243707284547426,0.11286386645902367,14
22.253708951491916,0.08342823381147828,14
22.263710618436406,0.06348336261703995,14
22.2737122853809,0.044222529102544504,14
22.28371395232539,0.03148237679076086,14
22.29371561926988,-0.00604547396368274,14
22.30371728621437,0.012268626625486424,14
22.313718953158862,0.003312748995276527,14
22.32372062010335,0.00768392682024289,14
22.33372228704784,-0.00010879455530913761,14
22.34372395399233,-0.0018690586210196774,14
22.353725620936824,0.0004601555618862574,14
22.363727287881314,-0.027939402116012903,14
22.373728954825804,-0.012184145321586824,14
22.383730621770297,-0.026971298844188273,14
22.393732288714787,-0.04955860939557408,14
22.403733955659277,-0.08772265707612667,14
22.413735622603767,-0.1206518441481384,14
22.42373728954826,-0.14845546203497803,14
22.43373895649275,-0.2036038023372328,14
22.44374062343724,-0.26012691550064043,14
22.45374229038173,-0.3175785545242403,14
22.463743957326223,-0.3631264564362247,14
22.473745624270713,-0.4493542406426768,14
22.483747291215202,-0.510584766909898,14
22.493748958159696,-0.5651051056417353,14
22.503750625104185,-0.6034792036945321,14
22.513752292048675,-0.6698801969372821,14
22.523753958993165,-0.6870223695237978,14
22.53375562593766,-0.7359563795908837,14
22.543757292882148,-0.7694138283722088,14
22.553758959826638,-0.7998724037023248,14
22.563760626771128,-0.7627008622160382,14
22.57376229371562,-0.7731863230154722,14
22.58376396066011,-0.7343918002638204,14
22.5937656276046,-0.711238723396428,14
22.603767294549094,-0.6346078187212276,14
22.613768961493584,-0.5692574999185366,14
22.623770628438074,-0.47014702998275093,14
22.633772295382563,-0.41892265582898486,14
22.643773962327057,-0.3270507822003529,14
22.653775629271546,-0.20791705331367055,14
22.663777296216036,-0.12061819165985607,14
22.673778963160526,0.004683712986701186,14
22.68378063010502,0.11287500832599269,14
22.69378229704951,0.23024172704666918,14
22.703783963994,0.3280528805498995,14
22.713785630938492,0.4084669621301226,14
22.723787297882982,0.5182684583224231,14
22.733788964827472,0.5882834071750824,14
22.74379063177196,0.6448515512607228,14
22.753792298716455,0.700646497602914,14
22.763793965660945,0.748263739913739,14
22.773795632605434,0.7798305760869929,14
22.783797299549924,0.7792527652133037,14
22.793798966494418,0.7724168525889926,14
22.803800633438907,0.7553838067764893,14
22.813802300383397,0.7253478753794409,14
22.82380396732789,0.6980974351736934,14
22.83380563427238,0.6663678930777875,14
22.84380730121687,0.592467225519563,14
22.85380896816136,0.5415862404655167,14
22.863810635105853,0.48474999638750677,14
22.873812302050343,0.4195204389661313,14
22.883813968994833,0.3507430702918576,14
22.893815635939323,0.29011285695107264,14
22.903817302883816,0.2674886985061463,14
22.913818969828306,0.1809018841423337,14
22.923820636772795,0.15648328067982026,14
22.93382230371729,0.10865474723864103,14
22.94382397066178,0.07951852893156136,14
22.95382563760627,0.054557149336224825,14
22.963827304550758,0.03350368006730597,14
22.97382897149525,0.022207476415623997,14
22.98383063843974,0.0041246570298274065,14
22.99383230538423,-0.015402273751662688,14
23.00383397232872,0.0036231831294590553,14
23.013835639273214,0.001898161125686745,14
23.023837306217704,0.004445624034663617,14
23.033838973162194,0.004461268665584043,14
23.043840640106687,-0.011539155809094108,14
23.053842307051177,-0.00904298616129379,14
23.063843973995667,-0.026756323212193994,14
23.073845640940156,-0.037671061612932995,14
23.08384730788465,-0.04444730458146051,14
23.09384897482914,-0.07253013756337656,14
23.10385064177363,-0.13500520941850847,14
23.11385230871812,-0.18470459050436647,14
23.123853975662612,-0.2259272761047491,14
23.133855642607102,-0.27215375135585923,14
23.143857309551592,-0.3147117366008299,14
23.153858976496082,-0.38442818251897193,14
23.163860643440575,-0.4578440193671908,14
23.173862310385065,-0.535079531054679,14
23.183863977329555,-0.5531596486263591,14
23.193865644274048,-0.6213396940243742,14
23.203867311218538,-0.686439845073624,14
23.213868978163028,-0.7202262250610719,14
23.223870645107517,-0.7432916847678737,14
23.23387231205201,-0.7525314472073382,14
23.2438739789965,-0.7574622942550259,14
23.25387564594099,-0.7731460479526211,14
23.26387731288548,-0.7589204016733179,14
23.273878979829973,-0.7233492133341796,14
23.283880646774463,-0.6841505512558675,14
23.293882313718953,-0.6175903597045901,14
23.303883980663446,-0.5516154668160425,14
23.313885647607936,-0.46903660131110325,14
23.323887314552426,-0.37638472882327717,14
23.333888981496916,-0.2921320341946668,14
23.34389064844141,-0.15580848857743104,14
23.3538923153859,-0.06322385648879843,14
23.36389398233039,0.04460556562902338,14
23.37389564927488,0.15339567739959142,14
23.38389731621937,0.2630124285586626,14
23.39389898316386,0.3727785895256226,14
23.40390065010835,0.4538344455477781,14
23.413902317052845,0.5485190418249978,14
23.423903983997334,0.6098397023214125,14
23.433905650941824,0.6790541456370944,14
23.443907317886314,0.6920894206645848,14
23.453908984830807,0.7552549864423643,14
23.463910651775297,0.7690287203770932,14
23.473912318719787,0.7711252291484149,14
23.483913985664277,0.7874747832372402,14
23.49391565260877,0.7678102507240631,14
23.50391731955326,0.7669597574191476,14
23.51391898649775,0.7001378421368354,14
23.523920653442243,0.6443485252724533,14
23.533922320386733,0.5732748478462831,14
23.543923987331222,0.5243654438564335,14
23.553925654275712,0.48203402525614786,14
23.563927321220206,0.3991926441469842,14
23.573928988164695,0.3443341937104902,14
23.583930655109185,0.2858877841402724,14
23.593932322053675,0.23898450826644588,14
23.60393398899817,0.1823205348766829,14
23.613935655942658,0.13415898804162266,14
23.623937322887148,0.09673930119239008,14
23.63393898983164,0.06870584808164827,14
23.64394065677613,0.053426878311464115,14
23.65394232372062,0.014660842240203436,14
23.66394399066511,0.01485982817451587,14
23.673945657609604,-0.004208707567593445,14
23.683947324554094,0.005839742902593642,14
23.693948991498583,-0.012263899616428854,14
23.703950658443073,0.011610001163237602,14
23.713952325387567,-0.014837088823340625,14
23.723953992332056,-0.0047617568085096505,14
23.733955659276546,0.0032186015040985283,14
23.74395732622104,-0.03192621222317378,14
23.75395899316553,-0.03594246296983288,14
23.76396066011002,-0.039042450100856455,14
23.77396232705451,-0.06346653522926393,14
23.783963993999002,-0.10449555932820288,14
23.793965660943492,-0.13041774278547572,14
23.80396732788798,-0.1922189042199903,14
23.81396899483247,-0.23578139314276222,14
23.823970661776965,-0.293050748870677,14
23.833972328721455,-0.3458754735462242,14
23.843973995665944,-0.42238639008931506,14
23.853975662610434,-0.47325427814439186,14
23.863977329554928,-0.5357967750455922,14
23.873978996499417,-0.5779628864898328,14
23.883980663443907,-0.6467224587241969,14
23.8939823303884,-0.6968298122570108,14
23.90398399733289,-0.7202702323557617,14
23.91398566427738,-0.7601230518336131,14
23.92398733122187,-0.7752225749382898,14
23.933988998166363,-0.7721555362052198,14
23.943990665110853,-0.7665239729717879,14
23.953992332055343,-0.7518939460044942,14
23.963993998999833,-0.7038447579763676,14
23.973995665944326,-0.6548928314086793,14
23.983997332888816,-0.5864652377168592,14
23.993998999833305,-0.5322916476559105,14
24.0040006667778,-0.43577988151073555,14
24.01400233372229,-0.33334070885010353,14
24.02400400066678,-0.25527913195235574,14
24.034005667611268,-0.1454367598689656,14
24.04400733455576,-0.03727439472244066,14
24.05400900150025,0.08206957827782281,14
24.06401066844474,0.2002526415338725,14
24.07401233538923,0.28522018464392146,14
24.084014002333724,0.37753796902668374,14
24.094015669278214,0.4638044080527605,14
24.104017336222704,0.5503116826832551,14
24.114019003167197,0.6218981554304077,14
24.124020670111687,0.6811679736805047,14
24.134022337056177,0.7313484903950765,14
24.144024004000666,0.763087628271226,14
24.15402567094516,0.7711695896056687,14
24.16402733788965,0.7725579843934656,14
24.17402900483414,0.7534771697193127,14
24.18403067177863,0.7547645152260002,14
24.194032338723122,0.6917162397299226,14
24.204034005667612,0.6748462417596004,14
24.214035672612102,0.6124250028473861,14
24.224037339556595,0.5609150136907584,14
24.234039006501085,0.5188909912024872,14
24.244040673445575,0.43537030921587183,14
24.254042340390065,0.36217442548350454,14
24.264044007334558,0.35086839086506894,14
24.274045674279048,0.269714279666095,14
24.284047341223538,0.22367502559888994,14
24.294049008168027,0.15707740242006538,14
24.30405067511252,0.1226326078344491,14
24.31405234205701,0.07654377665366877,14
24.3240540090015,0.05838123583512142,14
24.334055675945994,0.04201861534231462,14
24.344057342890483,0.036857986576346556,14
24.354059009834973,0.018271419919863224,14
24.364060676779463,0.004271993016124619,14
24.374062343723956,0.01771573762703938,14
24.384064010668446,0.003324638832488986,14
24.394065677612936,0.009369910891485877,14
24.404067344557426,0.007580144954684563,14
24.41406901150192,-0.00622652285485487,14
24.42407067844641,-0.0024939778141611713,14
24.4340723453909,-0.022213388405486412,14
24.444074012335392,-0.03918402991224713,14
24.45407567927988,-0.03509101664126487,14
24.46407734622437,-0.08934582637154403,14
24.47407901316886,-0.1038362459002413,14
24.484080680113355,-0.15570789983988265,14
24.494082347057844,-0.20206564007131664,14
24.504084014002334,-0.2680440967455442,14
24.514085680946824,-0.3171666254314965,14
24.524087347891317,-0.36133692806320294,14
24.534089014835807,-0.42631723707642355,14
24.544090681780297,-0.48345227590525897,14
24.554092348724787,-0.5648859738384433,14
24.56409401566928,-0.6116410096916584,14
24.57409568261377,-0.6388534452156723,14
24.58409734955826,-0.7051033356928076,14
24.594099016502753,-0.7367851974760209,14
24.604100683447243,-0.7759332768465761,14
24.614102350391732,-0.780867664678721,14
24.624104017336222,-0.7632156613274699,14
24.634105684280716,-0.7706064984177902,14
24.644107351225205,-0.722573090636487,14
24.654109018169695,-0.6914541242184776,14
24.664110685114185,-0.656392925793448,14
24.67411235205868,-0.5985556380202369,14
24.684114019003168,-0.511406022822459,14
24.694115685947658,-0.43514144942174926,14
24.70411735289215,-0.31261872717932365,14
24.71411901983664,-0.1989885167974288,14
24.72412068678113,-0.09011647323759026,14
24.73412235372562,0.022195788617066378,14
24.744124020670114,0.1156127340064924,14
24.754125687614604,0.2204506296203887,14
24.764127354559093,0.3296950883906147,14
24.774129021503583,0.41418478680737486,14
24.784130688448077,0.5185086928452779,14
24.794132355392566,0.5912262412808083,14
24.804134022337056,0.6314874838722108,14
24.81413568928155,0.6888321863044558,14
24.82413735622604,0.7328224342262427,14
24.83413902317053,0.7586367993044936,14
24.84414069011502,0.7767984970469869,14
24.854142357059512,0.7888824324000653,14
24.864144024004002,0.7859473550664164,14
24.87414569094849,0.7403919759777922,14
24.88414735789298,0.7038451043961917,14
24.894149024837475,0.6622454236376071,14
24.904150691781965,0.6231661957652007,14
24.914152358726454,0.5605083445517202,14
24.924154025670948,0.48925667511922477,14
24.934155692615438,0.4218213838657834,14
24.944157359559927,0.3703008691302012,14
24.954159026504417,0.3164833217751111,14
24.96416069344891,0.22799552780559862,14
24.9741623603934,0.21091800639929634,14
24.98416402733789,0.16177967602911514,14
24.99416569428238,0.119121422462971,14
25.004167361226873,0.08718372817751617,14
25.014169028171363,0.05058889144296263,14
25.024170695115853,0.04450977769199961,14
25.034172362060346,0.02936852587294677,14
25.044174029004836,-0.0006347478604856009,14
25.054175695949326,-0.011021221848638234,14
25.064177362893815,0.01142025624260757,14
25.07417902983831,0.010509330454938516,14
25.0841806967828,-0.0020515736487493816,14
25.09418236372729,0.0020461543536027128,14
25.104184030671778,0.001863954892246173,14
25.11418569761627,-0.019964002233881638,14
25.12418736456076,-0.026670753348696456,14
25.13418903150525,-0.031935176695302867,14
25.144190698449744,-0.05945429445158697,14
25.154192365394234,-0.09683680430144646,14
25.164194032338724,-0.11040929369960292,14
25.174195699283214,-0.16779446417978325,14
25.184197366227707,-0.21499168942997393,14
25.194199033172197,-0.2743568664705528,14
25.204200700116687,-0.3189798422607969,14
25.214202367061176,-0.4183542125690355,14
25.22420403400567,-0.4551873527124254,14
25.23420570095016,-0.5234567496700324,14
25.24420736789465,-0.5692643946902624,14
25.25420903483914,-0.6218092716560368,14
25.264210701783632,-0.6748070005836263,14
25.274212368728122,-0.7119342847608978,14
25.284214035672612,-0.7447110757850514,14
25.294215702617105,-0.7503936270329745,14
25.304217369561595,-0.8055585719274155,14
25.314219036506085,-0.760439133292081,14
25.324220703450575,-0.7445499919153363,14
25.334222370395068,-0.7166361477087995,14
25.344224037339558,-0.6903595761400728,14
25.354225704284048,-0.638187116729727,14
25.364227371228537,-0.5580242960348781,14
25.37422903817303,-0.46891493906612525,14
25.38423070511752,-0.3905384979880588,14
25.39423237206201,-0.29286681681209675,14
25.404234039006504,-0.19900117370178466,14
25.414235705950993,-0.05796988538106,14
25.424237372895483,0.03519217568898644,14
25.434239039839973,0.15992654234921347,14
25.444240706784466,0.25051906594425016,14
25.454242373728956,0.33521696097381803,14
25.464244040673446,0.43723712870210396,14
25.474245707617936,0.5249851492232326,14
25.48424737456243,0.6020373477179236,14
25.49424904150692,0.6696866553796237,14
25.50425070845141,0.717061442210601,14
25.514252375395902,0.7302544607868601,14
25.52425404234039,0.7605570983673061,14
25.53425570928488,0.7885921121506062,14
25.54425737622937,0.7804006499586398,14
25.554259043173865,0.7525550348623635,14
25.564260710118354,0.7219953571645842,14
25.574262377062844,0.6999336594727121,14
25.584264044007334,0.6520225558339,14
25.594265710951827,0.6031785454762534,14
25.604267377896317,0.5266330320854719,14
25.614269044840807,0.4864139657003601,14
25.6242707117853,0.4025040936730876,14
25.63427237872979,0.33473437541364465,14
25.64427404567428,0.31401864903601806,14
25.65427571261877,0.22675173617531522,14
25.664277379563263,0.1734066086219503,14
25.674279046507753,0.1580582604213108,14
25.684280713452242,0.11177615641040328,14
25.694282380396732,0.06393196132710596,14
25.704284047341226,0.05938360378213185,14
25.714285714285715,0.026310166534932667,14
25.724287381230205,0.012996185851255322,14
25.7342890481747,-0.0027582421578377404,14
25.744290715119188,-0.005215006822370311,14
25.754292382063678,-0.014659860145323158,14
25.764294049008168,-0.00012595486697883812,14
25.77429571595266,0.004668389133305245,14
25.78429738289715,-0.002274720518865159,14
25.79429904984164,0.01180377029039549,14
25.80430071678613,0.00484104817066244,14
25.814302383730624,-0.022800711340433173,14
25.824304050675114,-0.05363781483186558,14
25.834305717619603,-0.06627046958069802,14
25.844307384564097,-0.09983541761718952,14
25.854309051508586,-0.12304890372929218,14
25.864310718453076,-0.19927847017662784,14
25.874312385397566,-0.2301469154033084,14
25.88431405234206,-0.27989512637994135,14
25.89431571928655,-0.35290426125573254,14
25.90431738623104,-0.39773700113262983,14
25.91431905317553,-0.46768353212970804,14
25.924320720120022,-0.5493221079376059,14
25.934322387064512,-0.594442721718974,14
25.944324054009,-0.6527945524650487,14
25.954325720953495,-0.6905357743688774,14
25.964327387897985,-0.7345731927374736,14
25.974329054842475,-0.7517787435616705,14
25.984330721786964,-0.7712153502458147,14
25.994332388731458,-0.7629459656195771,14
26.004334055675947,-0.7607513036099346,14
26.014335722620437,-0.7721485187212174,14
26.024337389564927,-0.7199088268690037,14
26.03433905650942,-0.6638984265881347,14
26.04434072345391,-0.602135690011545,14
26.0543423903984,-0.5271344242427096,14
26.06434405734289,-0.4365953383917772,14
26.074345724287383,-0.34912232720410646,14
26.084347391231873,-0.24450698429621331,14
26.094349058176363,-0.16244854858733027,14
26.104350725120856,-0.041482351379417796,14
26.114352392065346,0.0680885695242437,14
26.124354059009836,0.1762334108816338,14
26.134355725954325,0.2742806978540853,14
26.14435739289882,0.3679542588497194,14
26.15435905984331,0.45982605855371345,14
26.1643607267878,0.5762137577608236,14
26.174362393732288,0.6421424943793185,14
26.18436406067678,0.6706678402325101,14
26.19436572762127,0.7275522819980337,14
26.20436739456576,0.7682855711410612,14
26.214369061510254,0.7765339272530913,14
26.224370728454744,0.7581986880613114,14
26.234372395399234,0.7594657241678601,14
26.244374062343724,0.7424011714849993,14
26.254375729288217,0.7058944650077498,14
26.264377396232707,0.6742863446072106,14
26.274379063177197,0.6232546208640136,14
26.284380730121686,0.5857470204343177,14
26.29438239706618,0.5128309736818724,14
26.30438406401067,0.4598973730887882,14
26.31438573095516,0.41290356973231285,14
26.324387397899653,0.3219535982464617,14
26.334389064844142,0.2693250311937945,14
26.344390731788632,0.21865047277500244,14
26.354392398733122,0.18631572982581274,14
26.364394065677615,0.14151871700135352,14
26.374395732622105,0.09346736095485192,14
26.384397399566595,0.061643464194729686,14
26.394399066511085,0.04388021388265598,14
26.404400733455578,0.00996947151259564,14
26.414402400400068,0.0020148480742325,14
26.424404067344557,0.02380427432766063,14
26.43440573428905,0.0016048749624949477,14
26.44440740123354,-0.0003673017794569955,14
26.45440906817803,-0.0036376598426954153,14
26.46441073512252,-0.005222620010514213,14
26.474412402067014,-0.0018736660381745078,14
26.484414069011503,-0.006132335645205967,14
26.494415735955993,-0.03655978582742396,14
26.504417402900483,-0.018114409198254612,14
26.514419069844976,-0.0632042701730824,14
26.524420736789466,-0.08739350453335358,14
26.534422403733956,-0.10412629130772799,14
26.54442407067845,-0.1496053522977436,14
26.55442573762294,-0.20765543397390276,14
26.56442740456743,-0.24894387164930842,14
26.57442907151192,-0.31165668252637874,14
26.584430738456412,-0.33883508051914635,14
26.5944324054009,-0.4246739292472364,14
26.60443407234539,-0.5108025777344435,14
26.61443573928988,-0.5393047784756817,14
26.624437406234374,-0.6070922504330037,14
26.634439073178864,-0.6627791635923546,14
26.644440740123354,-0.7020133763487069,14
26.654442407067847,-0.7465842205842721,14
26.664444074012337,-0.7648261454145072,14
26.674445740956827,-0.7720227808048703,14
26.684447407901317,-0.7763413867999489,14
26.69444907484581,-0.7682127606584341,14
26.7044507417903,-0.7380740140091868,14
26.71445240873479,-0.6976593241391262,14
26.72445407567928,-0.6503733075589238,14
26.734455742623773,-0.5896565480149093,14
26.744457409568263,-0.5257626664628374,14
26.754459076512752,-0.41199453561744126,14
26.764460743457242,-0.3429813701668762,14
26.774462410401735,-0.22505724114849548,14
26.784464077346225,-0.12165532827898295,14
26.794465744290715,-0.013177186994931932,14
26.80446741123521,0.11284091999720443,14
26.814469078179698,0.20015637833661515,14
26.824470745124188,0.2998774849160242,14
26.834472412068678,0.3915236199544537,14
26.84447407901317,0.4851854817094962,14
26.85447574595766,0.5906390973734595,14
26.86447741290215,0.6439108019765655,14
26.87447907984664,0.698240315328723,14
26.884480746791134,0.712804938459835,14
26.894482413735624,0.7719634568631281,14
26.904484080680113,0.7734396524517692,14
26.914485747624607,0.7752335436489975,14
26.924487414569096,0.7620580829964084,14
26.934489081513586,0.7402266009872255,14
26.944490748458076,0.7012142362321533,14
26.95449241540257,0.6639628641613904,14
26.96449408234706,0.6024308920218602,14
26.97449574929155,0.5443601382066091,14
26.98449741623604,0.4995651610838535,14
26.994499083180532,0.4316975519669173,14
27.004500750125022,0.391943885221699,14
27.01450241706951,0.31412090021677647,14
27.024504084014005,0.2552254741625521,14
27.034505750958495,0.19801002351603572,14
27.044507417902985,0.16106733408134727,14
27.054509084847474,0.11888131571986685,14
27.064510751791968,0.08630780166261391,14
27.074512418736457,0.04429759893304793,14
27.084514085680947,0.035955166485707346,14
27.094515752625437,0.020387437087087946,14
27.10451741956993,0.03590846140634765,14
27.11451908651442,0.0008359751692086606,14
27.12452075345891,0.006110599183893392,14
27.134522420403403,-0.01116129555513556,14
27.144524087347893,0.00317731369785596,14
27.154525754292383,0.005584082130446958,14
27.164527421236873,0.005630539730292507,14
27.174529088181366,0.00265186065953266,14
27.184530755125856,-0.034305013071854934,14
27.194532422070345,-0.023951812722428134,14
27.204534089014835,-0.04107989504175026,14
27.21453575595933,-0.08266843185439274,14
27.22453742290382,-0.11760030419023362,14
27.234539089848308,-0.16774045137409013,14
27.2445407567928,-0.21697505254289234,14
27.25454242373729,-0.2719287410440911,14
27.26454409068178,-0.32434936489221994,14
27.27454575762627,-0.3809818354910992,14
27.284547424570764,-0.43813149344967006,14
27.294549091515254,-0.48765801101824524,14
27.304550758459744,-0.5800409380362743,14
27.314552425404234,-0.6115169187604975,14
27.324554092348727,-0.6728634314849282,14
27.334555759293217,-0.7262273618746833,14
27.344557426237706,-0.7437440950192193,14
27.3545590931822,-0.7741863855202994,14
27.36456076012669,-0.7785889193716378,14
27.37456242707118,-0.7697521763469037,14
27.38456409401567,-0.757939253947811,14
27.394565760960162,-0.7409700515869808,14
27.404567427904652,-0.7014435941618289,14
27.414569094849142,-0.6160515908780705,14
27.424570761793632,-0.5587759896413288,14
27.434572428738125,-0.4794497270695464,14
27.444574095682615,-0.3777198815462711,14
27.454575762627105,-0.28440758632071045,14
27.464577429571595,-0.20287523829175239,14
27.474579096516088,-0.08734822332743442,14
27.484580763460578,0.041089079622369955,14
27.494582430405067,0.13188575793577328,14
27.50458409734956,0.23748837658084088,14
27.51458576429405,0.3335722744589349,14
27.52458743123854,0.4500451814242154,14
27.53458909818303,0.5052833713963559,14
27.544590765127523,0.6293360689072249,14
27.554592432072013,0.6547663232904937,14
27.564594099016503,0.7163852721834525,14
27.574595765960993,0.7421086116875593,14
27.584597432905486,0.7718776373229546,14
27.594599099849976,0.7756089578729858,14
27.604600766794466,0.7729199686159474,14
27.61460243373896,0.7410371992420963,14
27.62460410068345,0.7235928426182973,14
27.63460576762794,0.6955400203923545,14
27.64460743457243,0.6453579693785458,14
27.65460910151692,0.5969597499068836,14
27.66461076846141,0.544228842340882,14
27.6746124354059,0.49181852120607916,14
27.68461410235039,0.4132867427285216,14
27.694615769294884,0.35727805374565613,14
27.704617436239374,0.30411152175884343,14
27.714619103183864,0.26443353721150786,14
27.724620770128357,0.1913777427338975,14
27.734622437072847,0.13723327392921003,14
27.744624104017337,0.10550340099367055,14
27.754625770961827,0.08337445966233616,14
27.76462743790632,0.06340828470085066,14
27.77462910485081,0.024657047002329555,14
27.7846307717953,-0.015474863820903514,14
27.79463243873979,-0.002437376565431826,14
27.804634105684283,-0.003814395963946827,14
27.814635772628773,0.011172840678836806,14
27.824637439573262,-0.002568176941419105,14
27.834639106517756,0.026873213072324403,14
27.844640773462245,0.0005897885950621874,14
27.854642440406735,0.002989478799663877,14
27.864644107351225,-0.032663319072818914,14
27.87464577429572,-0.03198057612543137,14
27.884647441240208,-0.051880768026140965,14
27.894649108184698,-0.060353306050139,14
27.904650775129188,-0.10871675400553335,14
27.91465244207368,-0.12729135395573263,14
27.92465410901817,-0.18174442768867088,14
27.93465577596266,-0.24326010833606151,14
27.944657442907154,-0.27781358211316937,14
27.954659109851644,-0.3508326804595733,14
27.964660776796133,-0.40091129763751515,14
27.974662443740623,-0.46266239866388004,14
27.984664110685117,-0.5133312776661474,14
27.994665777629606,-0.5894019589196553,14
28.004667444574096,-0.6355705189459971,14
28.014669111518586,-0.685310862580879,14
28.02467077846308,-0.7398799178601606,14
28.03467244540757,-0.7488735685625413,14
28.04467411235206,-0.7723654050433337,14
28.054675779296552,-0.7729912772023376,14
28.064677446241042,-0.7829712437617669,14
28.07467911318553,-0.7636949795052805,14
28.08468078013002,-0.7162208098370252,14
28.094682447074515,-0.6603908208510961,14
28.104684114019005,-0.621328492324585,14
28.114685780963494,-0.5363029352755248,14
28.124687447907984,-0.46274178718805703,14
28.134689114852478,-0.36141082904078153,14
28.144690781796967,-0.24756996542925264,14
28.154692448741457,-0.15701551292030108,14
28.164694115685947,-0.04284206838925167,14
