time,ppg_signal,subject_id
0.0,-0.00763782102686241,18
0.010001666944490749,0.08186088674233531,18
0.020003333888981498,0.14555897338086174,18
0.030005000833472247,0.2126929254266242,18
0.040006667777962995,0.30287115522156693,18
0.050008334722453744,0.36732034923930607,18
0.06001000166694449,0.4300947758046253,18
0.07001166861143523,0.5039210159780474,18
0.08001333555592599,0.5437721341335737,18
0.09001500250041675,0.6163681023353271,18
0.10001666944490749,0.6361402597273148,18
0.11001833638939823,0.6985876797450491,18
0.12002000333388899,0.6881788351948785,18
0.13002167027837974,0.7332298868600148,18
0.14002333722287047,0.7687757642766806,18
0.15002500416736123,0.7774660116549705,18
0.16002667111185198,0.7818652885648263,18
0.17002833805634274,0.7676592976738232,18
0.1800300050008335,0.7758460706917798,18
0.19003167194532422,0.7688193385992903,18
0.20003333888981498,0.7367603209911803,18
0.21003500583430573,0.7128977374528289,18
0.22003667277879646,0.701030465047491,18
0.23003833972328722,0.681257277691444,18
0.24004000666777797,0.61167960006873,18
0.2500416736122687,0.5854052951271547,18
0.2600433405567595,0.5532932219993296,18
0.2700450075012502,0.5193515055901393,18
0.28004667444574094,0.45990289325479344,18
0.2900483413902317,0.40863958043195114,18
0.30005000833472245,0.3564783120034315,18
0.31005167527921323,0.3178564879125251,18
0.32005334222370396,0.2985704774490673,18
0.3300550091681947,0.2503325377997724,18
0.3400566761126855,0.22213464598993402,18
0.3500583430571762,0.17490348647871332,18
0.360060010001667,0.15685669000108943,18
0.3700616769461577,0.12662614838975048,18
0.38006334389064844,0.10057219287050685,18
0.3900650108351392,0.07250762090508096,18
0.40006667777962995,0.06073299772419309,18
0.4100683447241207,0.05163334797456841,18
0.42007001166861146,0.02784030987382859,18
0.4300716786131022,0.0013253677976380607,18
0.4400733455575929,0.0120737951346275,18
0.4500750125020837,-0.015206194364244006,18
0.46007667944657443,0.010398222784540967,18
0.4700783463910652,0.005646273940932371,18
0.48008001333555594,0.0017873492373428413,18
0.49008168028004667,0.01384475755921308,18
0.5000833472245374,0.02585854433295496,18
0.5100850141690282,-0.02428664448418183,18
0.520086681113519,0.005478182059679114,18
0.5300883480580096,-0.008020509737341577,18
0.5400900150025004,-0.00545579464546421,18
0.5500916819469912,-0.03718441646936166,18
0.5600933488914819,-0.010320385282559755,18
0.5700950158359727,-0.04291491455779442,18
0.5800966827804634,-0.0413222479863347,18
0.5900983497249542,-0.057853101471201415,18
0.6001000166694449,-0.08308704966340404,18
0.6101016836139357,-0.09506053386907407,18
0.6201033505584265,-0.13933027155872657,18
0.6301050175029171,-0.1826869719664481,18
0.6401066844474079,-0.20608238450196528,18
0.6501083513918987,-0.23863168567433177,18
0.6601100183363894,-0.27674996201374263,18
0.6701116852808802,-0.3090449396357747,18
0.680113352225371,-0.35623140362547656,18
0.6901150191698616,-0.40858368067659895,18
0.7001166861143524,-0.44859522380462946,18
0.7101183530588432,-0.47512969785285003,18
0.720120020003334,-0.5261583855537783,18
0.7301216869478246,-0.55340803887034,18
0.7401233538923154,-0.5991574373084316,18
0.7501250208368062,-0.6538454706744382,18
0.7601266877812969,-0.6937967173457419,18
0.7701283547257877,-0.7128420945432536,18
0.7801300216702785,-0.7285178506742529,18
0.7901316886147691,-0.7624430288720925,18
0.8001333555592599,-0.7419056872245842,18
0.8101350225037507,-0.767531753614251,18
0.8201366894482414,-0.7654674097691434,18
0.8301383563927321,-0.7814546787490375,18
0.8401400233372229,-0.7707309916684827,18
0.8501416902817136,-0.74421157085649,18
0.8601433572262044,-0.7379299162721027,18
0.8701450241706952,-0.6890681735927116,18
0.8801466911151858,-0.6689706768859809,18
0.8901483580596766,-0.6293637249565917,18
0.9001500250041674,-0.5659241558826432,18
0.9101516919486582,-0.5247458979296902,18
0.9201533588931489,-0.4473510069423506,18
0.9301550258376396,-0.3933396407370091,18
0.9401566927821304,-0.325729490823218,18
0.9501583597266211,-0.24530090991989772,18
0.9601600266711119,-0.18416569432724464,18
0.9701616936156027,-0.10542289327433875,18
0.9801633605600933,-0.0422590136847954,18
0.9901650275045841,0.018019259113506315,18
1.0001666944490748,0.11138389404561587,18
1.0101683613935657,0.18759785107941562,18
1.0201700283380564,0.2653567068935823,18
1.030171695282547,0.3554864235854908,18
1.040173362227038,0.41062232626422307,18
1.0501750291715286,0.484208278312049,18
1.0601766961160193,0.536826999990376,18
1.0701783630605102,0.5760971055729628,18
1.0801800300050008,0.6232503400991836,18
1.0901816969494915,0.6634531497743208,18
1.1001833638939824,0.7028943638418848,18
1.110185030838473,0.7336085767014059,18
1.1201866977829638,0.7266572783987558,18
1.1301883647274547,0.7652089103142754,18
1.1401900316719453,0.7825866248082556,18
1.1501916986164362,0.7714391388075034,18
1.160193365560927,0.7675673624239029,18
1.1701950325054176,0.7727127100633313,18
1.1801966994499085,0.7581536891885174,18
1.1901983663943991,0.714170298141783,18
1.2002000333388898,0.7003172815270929,18
1.2102017002833807,0.666679066370575,18
1.2202033672278714,0.6532962519411392,18
1.230205034172362,0.6054064431211711,18
1.240206701116853,0.5485473938381293,18
1.2502083680613436,0.5270883459232852,18
1.2602100350058343,0.4772500167833566,18
1.2702117019503252,0.4385966190047227,18
1.2802133688948159,0.3673116981641455,18
1.2902150358393065,0.3384446320720339,18
1.3002167027837974,0.32022327821264546,18
1.310218369728288,0.2922482448962681,18
1.3202200366727788,0.2396283126483766,18
1.3302217036172697,0.18705672120905326,18
1.3402233705617603,0.15334193463653972,18
1.350225037506251,0.13337987577849342,18
1.360226704450742,0.11603450770670065,18
1.3702283713952326,0.08937299165791487,18
1.3802300383397232,0.06117179333978224,18
1.3902317052842141,0.044741855891269375,18
1.4002333722287048,0.03639632941848659,18
1.4102350391731955,0.013386051054017472,18
1.4202367061176864,0.017113360426655608,18
1.430238373062177,-0.006330525593461429,18
1.440240040006668,-0.000996617844672404,18
1.4502417069511586,0.0034507619488200344,18
1.4602433738956493,0.002209584211393353,18
1.4702450408401402,0.01212597090833721,18
1.4802467077846309,0.007795472192710725,18
1.4902483747291215,-0.0012486794400717609,18
1.5002500416736124,-0.016611733167811036,18
1.510251708618103,-0.0037726718958229592,18
1.5202533755625938,-0.014811664235492822,18
1.5302550425070847,-0.012114915335671331,18
1.5402567094515753,-0.03040541538656017,18
1.550258376396066,-0.035612036700048574,18
1.560260043340557,-0.04688409476994526,18
1.5702617102850476,-0.06696162819937035,18
1.5802633772295382,-0.07504904242160841,18
1.5902650441740291,-0.09990369820841428,18
1.6002667111185198,-0.12623360017664362,18
1.6102683780630105,-0.17215222099471675,18
1.6202700450075014,-0.18046107492270014,18
1.630271711951992,-0.22172605982387036,18
1.6402733788964827,-0.2587366282924604,18
1.6502750458409736,-0.30457831217552767,18
1.6602767127854643,-0.3333813202863223,18
1.670278379729955,-0.381291173872982,18
1.6802800466744459,-0.42834292185322403,18
1.6902817136189365,-0.4611775798917597,18
1.7002833805634272,-0.5225285253183612,18
1.710285047507918,-0.5483036963670124,18
1.7202867144524088,-0.5895059824846932,18
1.7302883813968994,-0.6170701972863264,18
1.7402900483413903,-0.659703939945092,18
1.750291715285881,-0.6920067502958901,18
1.7602933822303717,-0.7413763079762489,18
1.7702950491748626,-0.7401162382835031,18
1.7802967161193533,-0.7566897081336994,18
1.7902983830638441,-0.7644418782059487,18
1.8003000500083348,-0.7706633578406196,18
1.8103017169528255,-0.7802976009659228,18
1.8203033838973164,-0.7792209761189676,18
1.830305050841807,-0.7572402254428808,18
1.8403067177862977,-0.7425163955489331,18
1.8503083847307886,-0.7274469363618357,18
1.8603100516752793,-0.6735379350037158,18
1.87031171861977,-0.6330855785250451,18
1.8803133855642609,-0.5962231751130719,18
1.8903150525087515,-0.5345652656850727,18
1.9003167194532422,-0.4970485939594867,18
1.910318386397733,-0.4149985446943677,18
1.9203200533422238,-0.37243885971543744,18
1.9303217202867144,-0.2917754880412075,18
1.9403233872312053,-0.22475613547946324,18
1.950325054175696,-0.15837727779016425,18
1.9603267211201867,-0.0697870850145792,18
1.9703283880646776,-0.013289670419144022,18
1.9803300550091683,0.08787388552329446,18
1.990331721953659,0.16639911689437129,18
2.0003333888981496,0.22936428777823648,18
2.0103350558426407,0.30010710077859076,18
2.0203367227871314,0.37543864485267275,18
2.030338389731622,0.4460936814092156,18
2.0403400566761127,0.4900358940655883,18
2.0503417236206034,0.5648999933433647,18
2.060343390565094,0.5914582244314704,18
2.070345057509585,0.6499857181139068,18
2.080346724454076,0.6774871465500748,18
2.0903483913985665,0.7287990271845081,18
2.100350058343057,0.7452387145935038,18
2.110351725287548,0.775851044897276,18
2.1203533922320386,0.7759012453146638,18
2.1303550591765297,0.768699552024134,18
2.1403567261210203,0.785683081858543,18
2.150358393065511,0.7784070661784852,18
2.1603600600100017,0.762698342560063,18
2.1703617269544924,0.7403585944089075,18
2.180363393898983,0.7254343001109573,18
2.190365060843474,0.6911167472548897,18
2.200366727787965,0.668229091134714,18
2.2103683947324555,0.6249817195644948,18
2.220370061676946,0.5668442222859934,18
2.230371728621437,0.5386120178466355,18
2.2403733955659275,0.5036897689061239,18
2.2503750625104186,0.4620378795400501,18
2.2603767294549093,0.4073567301184348,18
2.2703783963994,0.3656425199591839,18
2.2803800633438907,0.3126563840417963,18
2.2903817302883813,0.2722262853483772,18
2.3003833972328724,0.24694373242406353,18
2.310385064177363,0.22366954684681467,18
2.320386731121854,0.17564787577391036,18
2.3303883980663445,0.16644077922538916,18
2.340390065010835,0.12737028475733456,18
2.350391731955326,0.07130735520798095,18
2.360393398899817,0.08365672499751518,18
2.3703950658443076,0.061894314197519465,18
2.3803967327887983,0.04495946055898391,18
2.390398399733289,0.029571107951609707,18
2.4004000666777796,0.018787142424668866,18
2.4104017336222703,0.03624489015038232,18
2.4204034005667614,0.00182086657911771,18
2.430405067511252,0.013639366567167565,18
2.4404067344557427,-0.00010016391280119076,18
2.4504084014002334,-0.00749539400735912,18
2.460410068344724,-0.014023599751342465,18
2.4704117352892148,0.005333331986342279,18
2.480413402233706,0.003035821626390229,18
2.4904150691781965,-0.010547853778106303,18
2.5004167361226872,-0.020474183939547964,18
2.510418403067178,-0.006962826576342821,18
2.5204200700116686,-0.0027893283991792597,18
2.5304217369561592,-0.034749540783170864,18
2.5404234039006504,-0.021524606776522,18
2.550425070845141,-0.07051349863313698,18
2.5604267377896317,-0.06296295398561214,18
2.5704284047341224,-0.0757151585785813,18
2.580430071678613,-0.10291678765283892,18
2.590431738623104,-0.15955716640486808,18
2.600433405567595,-0.1642660009222038,18
2.6104350725120855,-0.20605800687895873,18
2.620436739456576,-0.24963839893966824,18
2.630438406401067,-0.26556400042109857,18
2.6404400733455575,-0.31512097415256446,18
2.6504417402900486,-0.3449901494777534,18
2.6604434072345393,-0.4052452977002037,18
2.67044507417903,-0.44410776477265723,18
2.6804467411235207,-0.4889143620302484,18
2.6904484080680113,-0.5369433024820625,18
2.700450075012502,-0.5792789331728254,18
2.710451741956993,-0.6165691307377129,18
2.720453408901484,-0.6392867188883438,18
2.7304550758459745,-0.6884585334001296,18
2.740456742790465,-0.6939071458269768,18
2.750458409734956,-0.7382373172568761,18
2.7604600766794465,-0.7729605571022373,18
2.7704617436239376,-0.7755958791297246,18
2.7804634105684283,-0.7634359970218496,18
2.790465077512919,-0.8016955623598869,18
2.8004667444574096,-0.7654596238130358,18
2.8104684114019003,-0.7541865063649138,18
2.820470078346391,-0.7411859910493477,18
2.830471745290882,-0.7332913910722133,18
2.8404734122353728,-0.6840380212739384,18
2.8504750791798634,-0.6647510474235879,18
2.860476746124354,-0.6234703612998096,18
2.8704784130688448,-0.5635781847214226,18
2.880480080013336,-0.5230439703834097,18
2.8904817469578266,-0.44843565480796005,18
2.9004834139023172,-0.3909239092082763,18
2.910485080846808,-0.327219422635247,18
2.9204867477912986,-0.2645540130404389,18
2.9304884147357892,-0.2014778755527937,18
2.9404900816802804,-0.10917707037182624,18
2.950491748624771,-0.02360987000827767,18
2.9604934155692617,0.04162676195826615,18
2.9704950825137524,0.12373128112475718,18
2.980496749458243,0.20727093756418258,18
2.9904984164027337,0.2779802192540335,18
3.000500083347225,0.34444579437068396,18
3.0105017502917155,0.41902582001619315,18
3.020503417236206,0.4868332380339801,18
3.030505084180697,0.5270330464444514,18
3.0405067511251875,0.5848609506087007,18
3.050508418069678,0.6286880022899232,18
3.0605100850141693,0.6540856768173837,18
3.07051175195866,0.6939566144592804,18
3.0805134189031507,0.7256015981772751,18
3.0905150858476413,0.7610923997981581,18
3.100516752792132,0.7570116184020619,18
3.1105184197366227,0.7759250745927193,18
3.120520086681114,0.7779892305728038,18
3.1305217536256045,0.7723169852993674,18
3.140523420570095,0.7770426772820737,18
3.150525087514586,0.7601523726968772,18
3.1605267544590765,0.7219446837530596,18
3.170528421403567,0.7002101500015513,18
3.1805300883480583,0.6846941437223801,18
3.190531755292549,0.6259445664633492,18
3.2005334222370396,0.5856476296434716,18
3.2105350891815303,0.5718660296004912,18
3.220536756126021,0.5200718303675806,18
3.230538423070512,0.48695888463165754,18
3.2405400900150028,0.4209103219121251,18
3.2505417569594934,0.3902112571612537,18
3.260543423903984,0.3495566646471392,18
3.270545090848475,0.3250868499545283,18
3.2805467577929655,0.26710648631787715,18
3.2905484247374566,0.23940278715729169,18
3.3005500916819472,0.1722734949244669,18
3.310551758626438,0.1465353967686177,18
3.3205534255709286,0.13869989640609534,18
3.3305550925154193,0.1203122652568127,18
3.34055675945991,0.06570603231948162,18
3.350558426404401,0.07090083691910753,18
3.3605600933488917,0.0433853673332597,18
3.3705617602933824,0.02560926984449124,18
3.380563427237873,0.012870241407308742,18
3.3905650941823637,0.009409165253422424,18
3.4005667611268544,0.018197993189239727,18
3.4105684280713455,-0.014683539784071248,18
3.420570095015836,-0.018768290539478927,18
3.430571761960327,0.00940712105953266,18
3.4405734289048175,0.014894570951764368,18
3.450575095849308,0.003697844432564922,18
3.460576762793799,0.016189249914887852,18
3.47057842973829,-0.0106543538152273,18
3.4805800966827807,0.014609445687451563,18
3.4905817636272714,0.0045793645324774725,18
3.500583430571762,-0.009603755945865693,18
3.5105850975162527,-0.010338952540346011,18
3.5205867644607434,-0.0334179548563749,18
3.5305884314052345,-0.03907227449107771,18
3.540590098349725,-0.05447729118883533,18
3.550591765294216,-0.07707980327464092,18
3.5605934322387065,-0.10300444382608684,18
3.570595099183197,-0.13076228661287542,18
3.5805967661276883,-0.16042176225713206,18
3.590598433072179,-0.16039694523423936,18
3.6006001000166696,-0.20879759535644804,18
3.6106017669611603,-0.24606337281701826,18
3.620603433905651,-0.3140608449433877,18
3.6306051008501417,-0.34662692578673837,18
3.6406067677946328,-0.3797724145978215,18
3.6506084347391234,-0.4150043727723552,18
3.660610101683614,-0.4716580478935411,18
3.670611768628105,-0.5062792883893749,18
3.6806134355725955,-0.557922740050217,18
3.690615102517086,-0.5908268416904303,18
3.7006167694615772,-0.6315900849451859,18
3.710618436406068,-0.6726985604612241,18
3.7206201033505586,-0.6795123010276963,18
3.7306217702950493,-0.7155896584277988,18
3.74062343723954,-0.7528041046092259,18
3.7506251041840306,-0.7603140584860193,18
3.7606267711285217,-0.7812622541243837,18
3.7706284380730124,-0.7939942297785684,18
3.780630105017503,-0.7766155362560233,18
3.7906317719619937,-0.7686144792142713,18
3.8006334389064844,-0.7455587326294373,18
3.810635105850975,-0.7328514137940157,18
3.820636772795466,-0.6949831204814418,18
3.830638439739957,-0.6600426709675399,18
3.8406401066844476,-0.6341091625023827,18
3.8506417736289382,-0.5871237405803013,18
3.860643440573429,-0.5343491329411095,18
3.87064510751792,-0.5044834565929279,18
3.8806467744624107,-0.42350807019016395,18
3.8906484414069014,-0.3602825176011967,18
3.900650108351392,-0.25274430151340593,18
3.9106517752958827,-0.22149647445355983,18
3.9206534422403734,-0.1399538918942436,18
3.9306551091848645,-0.043279843051748645,18
3.940656776129355,0.018343426147455648,18
3.950658443073846,0.09580627744238064,18
3.9606601100183365,0.1823690248115283,18
3.970661776962827,0.23971541181683434,18
3.980663443907318,0.3169386738860391,18
3.990665110851809,0.3769603840284988,18
4.000666777796299,0.43892054801764363,18
4.01066844474079,0.5085250844485164,18
4.020670111685281,0.5531118026382748,18
4.030671778629772,0.6015287873460666,18
4.040673445574263,0.6537278808933528,18
4.0506751125187535,0.6915897482053088,18
4.060676779463244,0.725374239202601,18
4.070678446407735,0.7441358309329024,18
4.0806801133522255,0.7783168767313937,18
4.090681780296716,0.7727145733695252,18
4.100683447241207,0.7873119919919815,18
4.1106851141856975,0.7715476576572249,18
4.120686781130188,0.769364711610967,18
4.130688448074679,0.7459120382633452,18
4.14069011501917,0.7511176804373799,18
4.150691781963661,0.7009905628798241,18
4.160693448908152,0.6801870466857725,18
4.170695115852642,0.6599906278796867,18
4.180696782797133,0.629486261149658,18
4.190698449741624,0.5969940296377173,18
4.200700116686114,0.5276506848269933,18
4.210701783630605,0.47705243865311375,18
4.220703450575096,0.4557670233414769,18
4.2307051175195864,0.4046833660487722,18
4.240706784464077,0.3494801503620676,18
4.250708451408569,0.3032491153802937,18
4.260710118353059,0.2746423657052945,18
4.27071178529755,0.24329107086628127,18
4.280713452242041,0.21079695971913057,18
4.290715119186531,0.1895355358978815,18
4.300716786131022,0.14040433398900012,18
4.310718453075513,0.1369900204248244,18
4.320720120020003,0.08814626894837276,18
4.330721786964494,0.08537850737854721,18
4.340723453908985,0.028285883151451127,18
4.350725120853475,0.0444280377404629,18
4.360726787797966,0.016108931504162094,18
4.370728454742458,0.010007641075815865,18
4.380730121686948,-0.00485696213974398,18
4.390731788631439,0.005372693457908401,18
4.40073345557593,0.0022974745744927414,18
4.41073512252042,-0.006766421351815571,18
4.420736789464911,0.012425206506575182,18
4.430738456409402,0.004883433572976071,18
4.440740123353892,0.013009187749419636,18
4.450741790298383,-0.0022420530332713873,18
4.460743457242874,-0.009292158160061128,18
4.470745124187364,-0.010040269089934226,18
4.480746791131855,-0.015544343509451452,18
4.490748458076347,-0.02879490587742601,18
4.500750125020837,-0.01790364573269259,18
4.510751791965328,-0.03106004295438588,18
4.520753458909819,-0.06359803991298826,18
4.530755125854309,-0.07145521885014128,18
4.5407567927988,-0.0937167195484512,18
4.550758459743291,-0.13193939863354112,18
4.560760126687781,-0.11790759213931074,18
4.570761793632272,-0.18107663931906742,18
4.580763460576763,-0.18980746043381022,18
4.590765127521253,-0.24741631064112166,18
4.600766794465745,-0.30144589069626465,18
4.6107684614102356,-0.3212873886031854,18
4.620770128354726,-0.36763939020693537,18
4.630771795299217,-0.41218241557180785,18
4.640773462243708,-0.450431616072382,18
4.650775129188198,-0.5003123713001716,18
4.660776796132689,-0.5318617860737617,18
4.67077846307718,-0.5657109886568323,18
4.68078013002167,-0.6118504973082883,18
4.690781796966161,-0.6608396555735273,18
4.700783463910652,-0.6890012279387104,18
4.710785130855142,-0.7153188168435971,18
4.720786797799634,-0.7400662697056194,18
4.7307884647441245,-0.7405254984691206,18
4.740790131688615,-0.7710207726859776,18
4.750791798633106,-0.7725643761541092,18
4.7607934655775965,-0.7668153881887831,18
4.770795132522087,-0.7767128512059506,18
4.780796799466578,-0.7793104936865105,18
4.7907984664110685,-0.7531929076008533,18
4.800800133355559,-0.7236024919332827,18
4.81080180030005,-0.6866958429080207,18
4.820803467244541,-0.6559694036923105,18
4.830805134189032,-0.6067657726682985,18
4.840806801133523,-0.558448876143706,18
4.8508084680780135,-0.49808355687882905,18
4.860810135022504,-0.4345535292492796,18
4.870811801966995,-0.3835168399532302,18
4.8808134689114855,-0.3091645312143241,18
4.890815135855976,-0.23338360585184598,18
4.900816802800467,-0.16263393565993636,18
4.9108184697449575,-0.09782792683937135,18
4.920820136689448,-0.01814617989330028,18
4.930821803633939,0.045488982440008374,18
4.9408234705784295,0.13163577607060242,18
4.950825137522921,0.21142376851395006,18
4.960826804467412,0.29007200164636077,18
4.970828471411902,0.3623633723011334,18
4.980830138356393,0.4209592013346217,18
4.990831805300884,0.4767995951856366,18
5.0008334722453744,0.5208475791597624,18
5.010835139189865,0.5954100171002111,18
5.020836806134356,0.6436591098470363,18
5.0308384730788465,0.6815301306311377,18
5.040840140023337,0.7172352296437761,18
5.050841806967828,0.7290605243396593,18
5.0608434739123185,0.7428121468226185,18
5.07084514085681,0.7624064877722778,18
5.080846807801301,0.7673320349809366,18
5.090848474745791,0.7778962602537765,18
5.100850141690282,0.7758658032650446,18
5.110851808634773,0.7526582816195782,18
5.120853475579263,0.738993737798725,18
5.130855142523754,0.7139285490256481,18
5.140856809468245,0.7053175593699662,18
5.150858476412735,0.6651975447162362,18
5.160860143357226,0.6266366191520961,18
5.170861810301717,0.6000642184024249,18
5.180863477246208,0.5387879998234956,18
5.190865144190699,0.5164755776654083,18
5.20086681113519,0.4666142575924077,18
5.21086847807968,0.4316464079922675,18
5.220870145024171,0.38945143161204704,18
5.230871811968662,0.3464654657542709,18
5.240873478913152,0.3025040251964446,18
5.250875145857643,0.26297725206374367,18
5.260876812802134,0.2345257785403055,18
5.270878479746624,0.18475130108218865,18
5.280880146691115,0.14257046159485434,18
5.290881813635606,0.1041260612672069,18
5.300883480580097,0.11512839500562552,18
5.310885147524588,0.08506213290497991,18
5.320886814469079,0.0777150909663456,18
5.330888481413569,0.062233604294859274,18
5.34089014835806,0.03374053904616372,18
5.350891815302551,0.032682477033188884,18
5.360893482247041,0.01270718505482958,18
5.370895149191532,0.016516728350526914,18
5.380896816136023,0.00863412602248563,18
5.390898483080513,0.003279220149740976,18
5.400900150025004,0.006205838192608659,18
5.410901816969495,0.01431187457905744,18
5.420903483913986,0.004779200712336314,18
5.430905150858477,0.011838227291660395,18
5.440906817802968,0.0010925403771074602,18
5.450908484747458,0.0008174636374382194,18
5.460910151691949,-0.010105111646136478,18
5.47091181863644,-0.020462028197282527,18
5.48091348558093,-0.01660261591572024,18
5.490915152525421,-0.03612497703070257,18
5.500916819469912,-0.037118166558522424,18
5.510918486414402,-0.05749342566476235,18
5.520920153358893,-0.10131174829271494,18
5.5309218203033845,-0.13058031082034827,18
5.540923487247875,-0.12362247084300046,18
5.550925154192366,-0.1788948606036369,18
5.5609268211368565,-0.21314382718887742,18
5.570928488081347,-0.2305844806966362,18
5.580930155025838,-0.251256197043221,18
5.590931821970329,-0.30351814487737744,18
5.600933488914819,-0.3360105163781728,18
5.61093515585931,-0.405319018992297,18
5.620936822803801,-0.4390749254026441,18
5.630938489748291,-0.4796154442608552,18
5.640940156692782,-0.5154555667624995,18
5.6509418236372735,-0.5678915070003354,18
5.660943490581764,-0.5978933796766949,18
5.670945157526255,-0.6447485485668357,18
5.6809468244707455,-0.6643966671839097,18
5.690948491415236,-0.6904510938852363,18
5.700950158359727,-0.7496937321561381,18
5.7109518253042175,-0.750219104142367,18
5.720953492248708,-0.7609482660984646,18
5.730955159193199,-0.7780231934937146,18
5.7409568261376895,-0.80205454440947,18
5.75095849308218,-0.7838028225571717,18
5.760960160026672,-0.7638291512526423,18
5.7709618269711624,-0.7558249760456502,18
5.780963493915653,-0.7389413477549751,18
5.790965160860144,-0.7036196760684255,18
5.8009668278046345,-0.6783117038508167,18
5.810968494749125,-0.6127495466045729,18
5.820970161693616,-0.5874093543711489,18
5.8309718286381065,-0.5289710782748318,18
5.840973495582597,-0.46794763759582214,18
5.850975162527088,-0.4139399286233496,18
5.8609768294715785,-0.33848849662475367,18
5.870978496416069,-0.2618655658535577,18
5.880980163360561,-0.2195141402519801,18
5.890981830305051,-0.12965250647221857,18
5.900983497249542,-0.05362801595345776,18
5.910985164194033,0.0338831834706963,18
5.920986831138523,0.08923186760643292,18
5.930988498083014,0.17217581184702688,18
5.940990165027505,0.2585348785522301,18
5.950991831971995,0.3243215618527909,18
5.960993498916486,0.40311841656886177,18
5.970995165860977,0.4699288221976117,18
5.9809968328054675,0.4996888965453558,18
5.990998499749958,0.5467824096860509,18
6.00100016669445,0.6081307255535408,18
6.01100183363894,0.6562717577495664,18
6.021003500583431,0.7064257115866602,18
6.031005167527922,0.7287107288524998,18
6.041006834472412,0.7531336519145576,18
6.051008501416903,0.7650097173821648,18
6.061010168361394,0.7867645648205769,18
6.071011835305884,0.7706095682818137,18
6.081013502250375,0.7700373144989184,18
6.091015169194866,0.7663936924292529,18
6.101016836139356,0.7692044862325769,18
6.111018503083848,0.7314875586518241,18
6.121020170028339,0.7307293035716972,18
6.131021836972829,0.6751079948087143,18
6.14102350391732,0.6503923106953583,18
6.151025170861811,0.603369440958402,18
6.161026837806301,0.5764461135377755,18
6.171028504750792,0.5511198985121545,18
6.181030171695283,0.48884905713144705,18
6.191031838639773,0.4471852385237418,18
6.201033505584264,0.4049956144324637,18
6.211035172528755,0.35920368275310205,18
6.221036839473245,0.3229675873906614,18
6.231038506417737,0.2836656631225439,18
6.241040173362228,0.23570956823161246,18
6.251041840306718,0.1938614719739202,18
6.261043507251209,0.1598374241337711,18
6.2710451741957,0.11928704842065094,18
6.28104684114019,0.10414392062686872,18
6.291048508084681,0.08986351394488451,18
6.301050175029172,0.06535070452548938,18
6.311051841973662,0.03362285536449744,18
6.321053508918153,0.050558177630403066,18
6.331055175862644,0.0051532652694735726,18
6.341056842807134,0.0020893294794226934,18
6.351058509751626,0.007638821554689243,18
6.361060176696117,0.0005637841527363048,18
6.371061843640607,-0.0015649774591734184,18
6.381063510585098,-0.022037622673540827,18
6.391065177529589,-0.02063722679604491,18
6.401066844474079,-0.004852841744464978,18
6.41106851141857,0.0009960296012762543,18
6.421070178363061,-0.016649725417234265,18
6.431071845307551,-0.01989432600453116,18
6.441073512252042,-0.011079326927492784,18
6.451075179196533,-0.011865450583713154,18
6.461076846141024,-0.0007765450901382406,18
6.471078513085515,-0.01905224693761893,18
6.4810801800300055,-0.035136940417424704,18
6.491081846974496,-0.05600806931322956,18
6.501083513918987,-0.062293208127814886,18
6.5110851808634775,-0.11772196395790512,18
6.521086847807968,-0.10606098001066158,18
6.531088514752459,-0.14110295035018464,18
6.54109018169695,-0.1925743261287463,18
6.55109184864144,-0.21377973052275548,18
6.561093515585931,-0.24668985599335438,18
6.571095182530422,-0.2769248170379389,18
6.581096849474913,-0.3277518415512265,18
6.591098516419404,-0.3725068334836253,18
6.6011001833638945,-0.4019588855518883,18
6.611101850308385,-0.45210350662420434,18
6.621103517252876,-0.5025765765908248,18
6.6311051841973665,-0.5344302491364721,18
6.641106851141857,-0.5878409658364576,18
6.651108518086348,-0.6048594187014447,18
6.6611101850308385,-0.6672987610835177,18
6.671111851975329,-0.678926868900896,18
6.68111351891982,-0.7303095120090458,18
6.6911151858643105,-0.7449384019952221,18
6.701116852808802,-0.7539716817792981,18
6.711118519753293,-0.777154131972042,18
6.721120186697783,-0.7788363437234163,18
6.731121853642274,-0.7843488768425482,18
6.741123520586765,-0.7856499670361271,18
6.7511251875312555,-0.7517933514693413,18
6.761126854475746,-0.7290995534701188,18
6.771128521420237,-0.7252204508760317,18
6.7811301883647275,-0.6822147379977096,18
6.791131855309218,-0.6530815231197012,18
6.801133522253709,-0.5996863844685602,18
6.8111351891982,-0.5468072752902824,18
6.821136856142691,-0.4884537121403206,18
6.831138523087182,-0.43897214905159615,18
6.841140190031672,-0.3931659385611605,18
6.851141856976163,-0.30783607452947026,18
6.861143523920654,-0.222405582428772,18
6.871145190865144,-0.1639454014104397,18
6.881146857809635,-0.07444477226770307,18
6.891148524754126,-0.015300821129149047,18
6.901150191698616,0.04784843047233221,18
6.911151858643107,0.14725191978176608,18
6.921153525587598,0.22799999768807402,18
6.931155192532089,0.3003724912877731,18
6.94115685947658,0.3682996585497992,18
6.951158526421071,0.422625467499366,18
6.961160193365561,0.47519666017784046,18
6.971161860310052,0.5429795399934954,18
6.981163527254543,0.605059829007563,18
6.991165194199033,0.6475380878460241,18
7.001166861143524,0.6749127118649868,18
7.011168528088015,0.6983841096666693,18
7.021170195032505,0.7310217242694921,18
7.031171861976996,0.7576451158565928,18
7.041173528921487,0.7696377137435233,18
7.051175195865978,0.7900566957993009,18
7.061176862810469,0.7759662636380019,18
7.07117852975496,0.7556985691453206,18
7.08118019669945,0.7631063423816786,18
7.091181863643941,0.7417261553865776,18
7.101183530588432,0.7279935920674744,18
7.111185197532922,0.6953223107018294,18
7.121186864477413,0.659803039850512,18
7.131188531421904,0.6265886012430097,18
7.141190198366394,0.5890075101542088,18
7.151191865310885,0.5495886522420574,18
7.161193532255377,0.5005258684691343,18
7.171195199199867,0.45710867986240383,18
7.181196866144358,0.4313262429093089,18
7.191198533088849,0.3597572483623684,18
7.201200200033339,0.33252095873658766,18
7.21120186697783,0.29376419624074646,18
7.221203533922321,0.23115849492879673,18
7.231205200866811,0.22029101328588135,18
7.241206867811302,0.19818986815106046,18
7.251208534755793,0.15963570556362155,18
7.261210201700283,0.11158253865758633,18
7.271211868644774,0.10241687254239173,18
7.2812135355892655,0.0733418672620923,18
7.291215202533756,0.06250384526170293,18
7.301216869478247,0.03246271328158197,18
7.311218536422738,0.03230290460314883,18
7.321220203367228,0.018131471879182154,18
7.331221870311719,0.002721577796687186,18
7.34122353725621,0.003454354000909928,18
7.3512252042007,0.019356992201005126,18
7.361226871145191,-0.015343315781576248,18
7.371228538089682,0.00016546117464752075,18
7.381230205034172,0.006034283728918621,18
7.391231871978664,-0.0007567684573966231,18
7.4012335389231545,0.010203194172766127,18
7.411235205867645,-0.01974002238720601,18
7.421236872812136,-0.01776680963341975,18
7.4312385397566265,0.002706389093525491,18
7.441240206701117,-0.01494139716048553,18
7.451241873645608,-0.012270039925498832,18
7.4612435405900985,-0.03548996674185492,18
7.471245207534589,-0.03448247381148106,18
7.48124687447908,-0.07254030740864675,18
7.4912485414235706,-0.09618132376933052,18
7.501250208368061,-0.11592724164054384,18
7.511251875312553,-0.1265816252638557,18
7.5212535422570435,-0.16123721783398076,18
7.531255209201534,-0.18639751560672543,18
7.541256876146025,-0.24433117556019057,18
7.5512585430905155,-0.25895925750150767,18
7.561260210035006,-0.2986303668118804,18
7.571261876979497,-0.32906944440999875,18
7.5812635439239875,-0.385666793806387,18
7.591265210868478,-0.4251367059421032,18
7.601266877812969,-0.475561744072393,18
7.6112685447574595,-0.5126248852855226,18
7.62127021170195,-0.5775174110180998,18
7.631271878646442,-0.6275737488306562,18
7.641273545590932,-0.6473568621996397,18
7.651275212535423,-0.6703360809593693,18
7.661276879479914,-0.6932936540364815,18
7.671278546424404,-0.7355293664557206,18
7.681280213368895,-0.7522650903380577,18
7.691281880313386,-0.7650933910631676,18
7.7012835472578764,-0.7713676017307529,18
7.711285214202367,-0.8118146460303551,18
7.721286881146858,-0.7782324874933475,18
7.7312885480913485,-0.7784331055770664,18
7.74129021503584,-0.7624331130141544,18
7.751291881980331,-0.7230699300664897,18
7.761293548924821,-0.7058299130453153,18
7.771295215869312,-0.6593603527253409,18
7.781296882813803,-0.629110269395263,18
7.791298549758293,-0.5793921264017006,18
7.801300216702784,-0.5159065697879025,18
7.811301883647275,-0.4776309594731477,18
7.821303550591765,-0.39542100933999036,18
7.831305217536256,-0.3326988850405315,18
7.841306884480747,-0.2691900049612664,18
7.851308551425237,-0.19133714565184695,18
7.861310218369729,-0.13117816205681146,18
7.87131188531422,-0.02558649356349511,18
7.88131355225871,0.042354527393088405,18
7.891315219203201,0.09541908765767496,18
7.901316886147692,0.1943330168838572,18
7.911318553092182,0.261373324199251,18
7.921320220036673,0.33465037334128594,18
7.931321886981164,0.37368244569642933,18
7.941323553925654,0.4405338013449476,18
7.951325220870145,0.5313143298538079,18
7.961326887814636,0.5629589708170089,18
7.971328554759126,0.6139481491602281,18
7.981330221703618,0.667422466258737,18
7.991331888648109,0.7127977130293272,18
8.001333555592598,0.7279828082982831,18
8.01133522253709,0.7529617280985509,18
8.02133688948158,0.7785111158419311,18
8.031338556426071,0.7739934244432821,18
8.041340223370563,0.7810048968729557,18
8.051341890315053,0.7745957870820637,18
8.061343557259544,0.7669329836000724,18
8.071345224204034,0.7561247334704241,18
8.081346891148526,0.7484499716406549,18
8.091348558093015,0.6986316965392109,18
8.101350225037507,0.6885143688003768,18
8.111351891981997,0.6359639028154014,18
8.121353558926488,0.5900751458369954,18
8.131355225870978,0.535062313395971,18
8.14135689281547,0.535718962198668,18
8.151358559759961,0.4796596889180737,18
8.161360226704451,0.4344139972313672,18
8.171361893648942,0.4103425249341601,18
8.181363560593432,0.35023936093696795,18
8.191365227537924,0.31423542165745044,18
8.201366894482414,0.2734606334120247,18
8.211368561426905,0.2206529436466602,18
8.221370228371395,0.1959792074561467,18
8.231371895315887,0.1617718686080082,18
8.241373562260376,0.13923768999844682,18
8.251375229204868,0.13738405279811344,18
8.261376896149358,0.08794499966501287,18
8.27137856309385,0.08141621862655347,18
8.28138023003834,0.04567056354644799,18
8.29138189698283,0.04239097975323815,18
8.301383563927322,0.02766637460054924,18
8.311385230871812,0.019112480615325573,18
8.321386897816303,0.013668858836728349,18
8.331388564760793,-0.00793136937580009,18
8.341390231705285,0.018554028676590305,18
8.351391898649775,0.0034154645201401115,18
8.361393565594266,0.00789633078386161,18
8.371395232538756,-0.003470143379727524,18
8.381396899483248,5.352824971061726e-05,18
8.391398566427739,-0.001012775784213694,18
8.401400233372229,-0.0028635953703767293,18
8.41140190031672,-0.01677216771514614,18
8.42140356726121,-0.01361607373068841,18
8.431405234205702,-0.007851461606734611,18
8.441406901150192,-0.015011987970133853,18
8.451408568094683,-0.02597197957488904,18
8.461410235039173,-0.073005169589206,18
8.471411901983664,-0.08145178041186758,18
8.481413568928154,-0.0824428096913473,18
8.491415235872646,-0.127811078400831,18
8.501416902817137,-0.15330747925844715,18
8.511418569761627,-0.1852184664229063,18
8.521420236706119,-0.21424787992504243,18
8.531421903650608,-0.24734796460520567,18
8.5414235705951,-0.28925733925695374,18
8.55142523753959,-0.31881199284970374,18
8.561426904484081,-0.38397605109102,18
8.571428571428571,-0.4091277445084007,18
8.581430238373063,-0.4655944386528575,18
8.591431905317553,-0.4861131756960916,18
8.601433572262044,-0.530169504587662,18
8.611435239206534,-0.5899607771659505,18
8.621436906151025,-0.6216950647743341,18
8.631438573095517,-0.6639241591120499,18
8.641440240040007,-0.6833284402376123,18
8.651441906984498,-0.7098721978536232,18
8.661443573928988,-0.7400124587152632,18
8.67144524087348,-0.7475755521146213,18
8.68144690781797,-0.7642116628974439,18
8.691448574762461,-0.768132339052717,18
8.70145024170695,-0.7845020002931564,18
8.711451908651442,-0.7616008297728095,18
8.721453575595932,-0.7618118016282394,18
8.731455242540424,-0.7340761680850744,18
8.741456909484915,-0.7291864182692086,18
8.751458576429405,-0.6816233553827602,18
8.761460243373897,-0.6277576086525627,18
8.771461910318386,-0.5693390228310856,18
8.781463577262878,-0.547749320345134,18
8.791465244207368,-0.49231910501812337,18
8.80146691115186,-0.44490439528539727,18
8.811468578096349,-0.36883595963967714,18
8.82147024504084,-0.28422945440885083,18
8.83147191198533,-0.2205917342190753,18
8.841473578929822,-0.15672155390054193,18
8.851475245874314,-0.0854004213526189,18
8.861476912818803,-0.00040116383568922416,18
8.871478579763295,0.08403059745175293,18
8.881480246707785,0.13784429114864166,18
8.891481913652276,0.22126707707637255,18
8.901483580596766,0.3096378557153004,18
8.911485247541258,0.37365372061931557,18
8.921486914485747,0.4213775141353282,18
8.931488581430239,0.48469933384279845,18
8.941490248374729,0.5545406681314308,18
8.95149191531922,0.6127130528928106,18
8.96149358226371,0.6459821565660199,18
8.971495249208202,0.6662019098035866,18
8.981496916152693,0.7102702312692707,18
8.991498583097183,0.7369197172311875,18
9.001500250041675,0.7467150729907457,18
9.011501916986164,0.7688731455069739,18
9.021503583930656,0.7809593759127564,18
9.031505250875146,0.772910433466567,18
9.041506917819637,0.7540557639927794,18
9.051508584764127,0.7651230175141179,18
9.061510251708619,0.7724034497495582,18
9.071511918653108,0.708134354618942,18
9.0815135855976,0.6812619025673908,18
9.091515252542091,0.6619567143667224,18
9.101516919486581,0.6405350853579932,18
9.111518586431073,0.5673115445207256,18
9.121520253375563,0.5706740629759695,18
9.131521920320054,0.5037791453504047,18
9.141523587264544,0.466703700139969,18
9.151525254209036,0.41606642096363217,18
9.161526921153525,0.3831466841334898,18
9.171528588098017,0.3472792605254636,18
9.181530255042507,0.30549041252328546,18
9.191531921986998,0.2612493925116011,18
9.20153358893149,0.21107499298005353,18
9.21153525587598,0.185771714890015,18
9.221536922820471,0.1529634325212263,18
9.231538589764961,0.11564291876401364,18
9.241540256709452,0.09287626642667998,18
9.251541923653942,0.07998427789830856,18
9.261543590598434,0.04458968934250239,18
9.271545257542924,0.04033102301864984,18
9.281546924487415,0.03739871161317778,18
9.291548591431905,0.004672361143553152,18
9.301550258376396,0.0016610952143358611,18
9.311551925320888,-0.004171489152806605,18
9.321553592265378,0.005478889790436755,18
9.33155525920987,0.006858654084017802,18
9.34155692615436,0.0013687698622146087,18
9.35155859309885,-0.0019632052613821707,18
9.36156026004334,0.0010632247534961515,18
9.371561926987832,0.004027053778839684,18
9.381563593932322,0.01788524694168948,18
9.391565260876813,-0.00817533406508111,18
9.401566927821303,0.0016684035890493776,18
9.411568594765795,-0.013846513065125904,18
9.421570261710285,-0.02796570202817812,18
9.431571928654776,-0.028478570649312734,18
9.441573595599268,-0.04821921973171615,18
9.451575262543757,-0.08079705161698877,18
9.461576929488249,-0.063992294210459,18
9.471578596432739,-0.12178372821935324,18
9.48158026337723,-0.1446715971243072,18
9.49158193032172,-0.17312509226058184,18
9.501583597266212,-0.19294535015019595,18
9.511585264210701,-0.234889687055012,18
9.521586931155193,-0.28348438122841363,18
9.531588598099683,-0.33145307066340074,18
9.541590265044174,-0.35899634210571285,18
9.551591931988666,-0.4157144874136593,18
9.561593598933156,-0.42821693043972586,18
9.571595265877647,-0.4961222692970813,18
9.581596932822137,-0.5233910404786062,18
9.591598599766629,-0.5659256371714274,18
9.601600266711118,-0.5945547521281517,18
9.61160193365561,-0.6369078541598382,18
9.6216036006001,-0.6663011456883667,18
9.631605267544591,-0.7248680690234642,18
9.641606934489081,-0.7462344830136044,18
9.651608601433573,-0.7729023018333603,18
9.661610268378064,-0.7636525970180521,18
9.671611935322554,-0.7758617933790035,18
9.681613602267046,-0.8038870495900191,18
9.691615269211535,-0.7661354665608696,18
9.701616936156027,-0.7742974306448558,18
9.711618603100517,-0.7452422382822916,18
9.721620270045008,-0.7312714171202623,18
9.731621936989498,-0.7089409567576372,18
9.74162360393399,-0.6627461427297165,18
9.75162527087848,-0.6132424427676412,18
9.761626937822971,-0.573002637905468,18
9.77162860476746,-0.5086834782611601,18
9.781630271711952,-0.4547881989311468,18
9.791631938656444,-0.40095214304937393,18
9.801633605600934,-0.32502635387911544,18
9.811635272545425,-0.25544556559397985,18
9.821636939489915,-0.19275804723759213,18
9.831638606434407,-0.11563660812085216,18
9.841640273378896,-0.03497618610246155,18
9.851641940323388,0.025152346421891864,18
9.861643607267878,0.10193827034035556,18
9.87164527421237,0.20508117758426947,18
9.881646941156859,0.2645112870092073,18
9.89164860810135,0.3463935576364093,18
9.901650275045842,0.40406298107628313,18
9.911651941990332,0.4641710763408547,18
9.921653608934824,0.5170300484432264,18
9.931655275879313,0.5916773866189826,18
9.941656942823805,0.6319893325908612,18
9.951658609768295,0.6496396694163568,18
9.961660276712786,0.6951212344547748,18
9.971661943657276,0.7303247778207242,18
9.981663610601768,0.7442332315871493,18
9.991665277546257,0.7680234441189068,18
10.001666944490749,0.7828048796669814,18
10.01166861143524,0.7598361280238284,18
10.02167027837973,0.7610544068441698,18
10.031671945324222,0.7553547367330656,18
10.041673612268712,0.7529669001616262,18
10.051675279213203,0.7456936126954141,18
10.061676946157693,0.7101294618512293,18
10.071678613102184,0.6915643994291566,18
10.081680280046674,0.6317377245295873,18
10.091681946991166,0.5889846753584539,18
10.101683613935656,0.5674295071029253,18
10.111685280880147,0.5137223883438631,18
10.121686947824637,0.48521631998334736,18
10.131688614769129,0.4200152873468946,18
10.14169028171362,0.39170097130397585,18
10.15169194865811,0.3376616497971003,18
10.161693615602601,0.29235395099139055,18
10.171695282547091,0.28476754444229585,18
10.181696949491583,0.2628066153056761,18
10.191698616436073,0.20013467551362968,18
10.201700283380564,0.15239154692193663,18
10.211701950325054,0.12509511075516644,18
10.221703617269545,0.125313279310896,18
10.231705284214035,0.08177215386679869,18
10.241706951158527,0.06894956512574489,18
10.251708618103018,0.046110750745735875,18
10.261710285047508,0.03258776558992132,18
10.271711951992,0.021893249004304005,18
10.28171361893649,0.009246568553274232,18
10.291715285880981,0.009787913925060811,18
10.30171695282547,0.004741786016156962,18
10.311718619769962,0.008178815867094085,18
10.321720286714452,0.00046088633724724595,18
10.331721953658944,0.00370140052978519,18
10.341723620603434,0.004595644449973383,18
10.351725287547925,-0.01616243068907713,18
10.361726954492417,-0.013316112846492825,18
10.371728621436906,0.014461100560277926,18
10.381730288381398,-0.005788309377840035,18
10.391731955325888,-0.020696596310914212,18
10.40173362227038,-0.016548171624638303,18
10.41173528921487,-0.025714383262013068,18
10.42173695615936,-0.044873214127123535,18
10.43173862310385,-0.06516427512301967,18
10.441740290048342,-0.08794528738444085,18
10.451741956992832,-0.09079937534303152,18
10.461743623937323,-0.116980567317029,18
10.471745290881813,-0.14964336514715107,18
10.481746957826305,-0.18328076043481842,18
10.491748624770796,-0.2208426339855003,18
10.501750291715286,-0.25594982399287014,18
10.511751958659778,-0.3034915949972772,18
10.521753625604267,-0.3336499797729814,18
10.531755292548759,-0.37269047357049523,18
10.541756959493249,-0.43538507446220565,18
10.55175862643774,-0.470993812348994,18
10.56176029338223,-0.5127332388400014,18
10.571761960326722,-0.5407907157123508,18
10.581763627271211,-0.5896683759858171,18
10.591765294215703,-0.6349503232847296,18
10.601766961160195,-0.6524358081522789,18
10.611768628104684,-0.6955973034469665,18
10.621770295049176,-0.7022830198499516,18
10.631771961993666,-0.7165601310537977,18
10.641773628938157,-0.7658570407527884,18
10.651775295882647,-0.7839113585671578,18
10.661776962827139,-0.7631356334458865,18
10.671778629771628,-0.7885554813647433,18
10.68178029671612,-0.7775648458027374,18
10.69178196366061,-0.7384500887398838,18
10.701783630605101,-0.7212734989685375,18
10.711785297549593,-0.7161508092976273,18
10.721786964494083,-0.6729214076995763,18
10.731788631438574,-0.6243925088468772,18
10.741790298383064,-0.5946502133998197,18
10.751791965327556,-0.5412522659232671,18
10.761793632272045,-0.4760105751406554,18
10.771795299216537,-0.4295312009968202,18
10.781796966161027,-0.335015014347704,18
10.791798633105518,-0.29536873485656084,18
10.801800300050008,-0.22741425801108073,18
10.8118019669945,-0.14299165835502825,18
10.82180363393899,-0.0691510207905201,18
10.831805300883481,0.007542811626616365,18
10.841806967827972,0.07860424835938086,18
10.851808634772462,0.1604554124581516,18
10.861810301716954,0.244135818170073,18
10.871811968661444,0.29377921356224596,18
10.881813635605935,0.37668841820549837,18
10.891815302550425,0.44029745365354617,18
10.901816969494917,0.5179558334834903,18
10.911818636439406,0.5512934500085068,18
10.921820303383898,0.6272927693786323,18
10.931821970328388,0.6369087486917371,18
10.94182363727288,0.6802739440354666,18
10.95182530421737,0.7040220819219266,18
10.96182697116186,0.7393126592820314,18
10.971828638106352,0.7601074076568508,18
10.981830305050842,0.7696976553495902,18
10.991831971995333,0.7877766514878627,18
11.001833638939823,0.7895200928331444,18
11.011835305884315,0.7708296827586526,18
11.021836972828805,0.7612859258026169,18
11.031838639773296,0.7273027275511728,18
11.041840306717786,0.7057717070385624,18
11.051841973662277,0.6854553017317249,18
11.061843640606769,0.6640623989567267,18
11.071845307551259,0.6277348282171827,18
11.08184697449575,0.5747850503816796,18
11.09184864144024,0.5395596583783192,18
11.101850308384732,0.49779460653629937,18
11.111851975329222,0.4430047195675124,18
11.121853642273713,0.4042729209505989,18
11.131855309218203,0.3740216224999371,18
11.141856976162694,0.3314102106654417,18
11.151858643107184,0.2868525554710916,18
11.161860310051676,0.2457350951200119,18
11.171861976996166,0.21947286682458356,18
11.181863643940657,0.18020383314160685,18
11.191865310885149,0.13835834736261826,18
11.201866977829638,0.1274202054005719,18
11.21186864477413,0.08163450295277329,18
11.22187031171862,0.0816196302164811,18
11.231871978663111,0.060755544698775435,18
11.241873645607601,0.030072177840221676,18
11.251875312552093,0.0340506420949817,18
11.261876979496583,0.02864212713876261,18
11.271878646441074,0.015864545625928372,18
11.281880313385564,0.010156476970417438,18
11.291881980330055,0.0076480172831025935,18
11.301883647274547,0.0004259533028405751,18
11.311885314219037,-0.0063652915012793,18
11.321886981163528,0.006109746365281412,18
11.331888648108018,0.00919455586678154,18
11.34189031505251,-0.00044076220718211183,18
11.351891981997,-0.009990708041343227,18
11.361893648941491,-0.006486615147445574,18
11.37189531588598,-0.026510486223180207,18
11.381896982830472,-0.015706452342890965,18
11.391898649774962,-0.01793218941321923,18
11.401900316719454,-0.028920403818406867,18
11.411901983663945,-0.04561056062892585,18
11.421903650608435,-0.06712102188043169,18
11.431905317552927,-0.08684301383091055,18
11.441906984497416,-0.12789046541830631,18
11.451908651441908,-0.14760138829978975,18
11.461910318386398,-0.1638388048325659,18
11.47191198533089,-0.190451772487509,18
11.481913652275379,-0.22833225904209262,18
11.49191531921987,-0.2670055202797632,18
11.50191698616436,-0.3384576417416509,18
11.511918653108852,-0.3512056818925717,18
11.521920320053344,-0.40404934613388005,18
11.531921986997833,-0.43927645123602166,18
11.541923653942325,-0.4787607053162553,18
11.551925320886815,-0.5288893498269914,18
11.561926987831306,-0.5830274952479177,18
11.571928654775796,-0.6081159809939145,18
11.581930321720288,-0.6381989849002319,18
11.591931988664777,-0.6732936289076438,18
11.601933655609269,-0.7161629256596242,18
11.611935322553759,-0.7490365964590983,18
11.62193698949825,-0.743093089933467,18
11.63193865644274,-0.7651650883618594,18
11.641940323387232,-0.7595711899541636,18
11.651941990331723,-0.7868705372278229,18
11.661943657276213,-0.7663376659665538,18
11.671945324220705,-0.7718701617793352,18
11.681946991165194,-0.7461323307514195,18
11.691948658109686,-0.719738373902196,18
11.701950325054176,-0.6911730505543575,18
11.711951991998667,-0.662057994004657,18
11.721953658943157,-0.616392022155472,18
11.731955325887649,-0.5729108078846128,18
11.741956992832138,-0.5166084382906821,18
11.75195865977663,-0.46088723290919537,18
11.761960326721121,-0.38556557851126977,18
11.771961993665611,-0.30962973792392945,18
11.781963660610103,-0.24304925359873425,18
11.791965327554593,-0.17275062691378973,18
11.801966994499084,-0.08796189562530712,18
11.811968661443574,-0.02021545900625404,18
11.821970328388065,0.04888013117259916,18
11.831971995332555,0.1447125820437978,18
11.841973662277047,0.19164145163038773,18
11.851975329221537,0.26200440951668325,18
11.861976996166028,0.34092234374717073,18
11.87197866311052,0.4070000976448795,18
11.88198033005501,0.47915007817051475,18
11.891981996999501,0.5330962010171856,18
11.90198366394399,0.5784598265812019,18
11.911985330888482,0.6193462354891138,18
11.921986997832972,0.6861054854507647,18
11.931988664777464,0.7133295339797677,18
11.941990331721954,0.719822591675452,18
11.951991998666445,0.7618289224319545,18
11.961993665610935,0.7735946014581854,18
11.971995332555426,0.7628351659356496,18
11.981996999499916,0.7980005600323542,18
11.991998666444408,0.765927089405259,18
12.0020003333889,0.7756606244921976,18
12.01200200033339,0.7541773083890742,18
12.02200366727788,0.73486636213501,18
12.03200533422237,0.7131702023241776,18
12.042007001166862,0.6704070757424723,18
12.052008668111352,0.6568411299885223,18
12.062010335055843,0.6105828175056534,18
12.072012002000333,0.558912033028066,18
12.082013668944825,0.5085075091449983,18
12.092015335889315,0.4740518537372608,18
12.102017002833806,0.42640135899910736,18
12.112018669778298,0.39528677227722897,18
12.122020336722787,0.3405130125584114,18
12.132022003667279,0.3135601247443185,18
12.142023670611769,0.25932898409186944,18
12.15202533755626,0.22311878465235657,18
12.16202700450075,0.18683980860128524,18
12.172028671445242,0.14911103359918293,18
12.182030338389731,0.13447917611620117,18
12.192032005334223,0.10629631289707116,18
12.202033672278713,0.09734349049879458,18
12.212035339223204,0.06331435328501382,18
12.222037006167696,0.05771072387726586,18
12.232038673112186,0.03791331397186858,18
12.242040340056677,0.029987233221006118,18
12.252042007001167,0.022239425695303933,18
12.262043673945659,0.0044870307476180555,18
12.272045340890148,-0.004087343114773244,18
12.28204700783464,-0.007711232489381636,18
12.29204867477913,-0.007562220755427181,18
12.302050341723621,-0.014788335869070506,18
12.312052008668111,-0.0010481397640140992,18
12.322053675612603,-0.002500948099559669,18
12.332055342557092,0.0016071211290628012,18
12.342057009501584,-0.0002720033873106608,18
12.352058676446076,-0.007470095300682039,18
12.362060343390565,-0.004336109916685997,18
12.372062010335057,-0.01350731078971848,18
12.382063677279547,-0.02320915727991752,18
12.392065344224038,-0.040096842158726664,18
12.402067011168528,-0.048418513341297986,18
12.41206867811302,-0.08311365716909425,18
12.42207034505751,-0.08550091920275218,18
12.432072012002001,-0.12906247518345404,18
12.44207367894649,-0.16236567713046807,18
12.452075345890982,-0.1778016736088385,18
12.462077012835474,-0.1994624711024769,18
12.472078679779964,-0.26708994839003347,18
12.482080346724455,-0.3157652354389098,18
12.492082013668945,-0.34619440367039434,18
12.502083680613437,-0.37858945438656144,18
12.512085347557926,-0.4313603210156237,18
12.522087014502418,-0.4816448241563232,18
12.532088681446908,-0.5107633738738176,18
12.5420903483914,-0.5615060603392752,18
12.552092015335889,-0.6091889686485549,18
12.56209368228038,-0.6309006218497916,18
12.572095349224872,-0.6765988097554929,18
12.582097016169362,-0.6887758257138497,18
12.592098683113853,-0.7297024925616575,18
12.602100350058343,-0.7455899170633065,18
12.612102017002835,-0.7640482906305095,18
12.622103683947325,-0.7677488629051705,18
12.632105350891816,-0.7884341298542008,18
12.642107017836306,-0.7892941682545204,18
12.652108684780798,-0.769380514359832,18
12.662110351725287,-0.766166345885922,18
12.672112018669779,-0.7201102155810797,18
12.682113685614269,-0.7046965971514396,18
12.69211535255876,-0.6727678577243923,18
12.702117019503252,-0.6340840994689607,18
12.712118686447742,-0.5907564981117457,18
12.722120353392233,-0.5482544317896728,18
12.732122020336723,-0.48932284803031556,18
12.742123687281214,-0.4041540415894485,18
12.752125354225704,-0.3801200505055002,18
12.762127021170196,-0.2672833950124667,18
12.772128688114686,-0.1951611239495481,18
12.782130355059177,-0.15159935718384002,18
12.792132022003667,-0.05191111931012719,18
12.802133688948159,0.018562282154521312,18
12.81213535589265,0.09974449864857876,18
12.82213702283714,0.17426754915916595,18
12.832138689781631,0.24311826695376107,18
12.842140356726121,0.30705434595515646,18
12.852142023670613,0.3723024362688805,18
12.862143690615103,0.4294989242551811,18
12.872145357559594,0.5059423233224762,18
12.882147024504084,0.5606268547143354,18
12.892148691448575,0.6282251615138121,18
12.902150358393065,0.6645353632148584,18
12.912152025337557,0.689849828010474,18
12.922153692282048,0.7252171422105452,18
12.932155359226538,0.7400692683153342,18
12.94215702617103,0.7648475067754629,18
12.95215869311552,0.7985973316628753,18
12.962160360060011,0.7690391393448469,18
12.9721620270045,0.7746028928823024,18
12.982163693948992,0.7523717956445559,18
12.992165360893482,0.7576352613374207,18
13.002167027837974,0.7344959418947185,18
13.012168694782464,0.7210830894712963,18
13.022170361726955,0.6967094263266485,18
13.032172028671445,0.6561539804891678,18
13.042173695615936,0.6365335093767678,18
13.052175362560428,0.5777590503120581,18
13.062177029504918,0.5440241230946222,18
13.07217869644941,0.4887411997764748,18
13.0821803633939,0.4489561947039452,18
13.09218203033839,0.4186320531405597,18
13.10218369728288,0.3627032065653583,18
13.112185364227372,0.322146201028755,18
13.122187031171862,0.29404624906030313,18
13.132188698116353,0.23818841757606218,18
13.142190365060843,0.21636299706527948,18
13.152192032005335,0.17962203002890306,18
13.162193698949826,0.13209882582195623,18
13.172195365894316,0.13339561314963272,18
13.182197032838808,0.08795969591253008,18
13.192198699783297,0.05295913038554764,18
13.202200366727789,0.03828522359448133,18
13.212202033672279,0.03544929003854437,18
13.22220370061677,0.04629959036644567,18
13.23220536756126,0.009963893426632137,18
13.242207034505752,-0.00450583131350564,18
13.252208701450241,0.007916769345671563,18
13.262210368394733,0.018087050282554824,18
13.272212035339225,-0.018157566464453642,18
13.282213702283714,-0.0057593350474249546,18
13.292215369228206,-0.019959492089691822,18
13.302217036172696,0.009380038071364118,18
13.312218703117187,-0.008854402472659324,18
13.322220370061677,-0.021162948163622457,18
13.332222037006169,-0.010200350525477929,18
13.342223703950658,9.705382553714531e-05,18
13.35222537089515,-0.01623182590643799,18
13.36222703783964,-0.002712214995326652,18
13.372228704784131,-0.023750960314576956,18
13.382230371728621,-0.05580985809662668,18
13.392232038673113,-0.07169157310467181,18
13.402233705617604,-0.09647288662288384,18
13.412235372562094,-0.12760467546857376,18
13.422237039506586,-0.13459178643284533,18
13.432238706451075,-0.1892152227058709,18
13.442240373395567,-0.19171236474080613,18
13.452242040340057,-0.23800358186291493,18
13.462243707284548,-0.2764753292735424,18
13.472245374229038,-0.3282464243530525,18
13.48224704117353,-0.36246255043575215,18
13.49224870811802,-0.40252680799143364,18
13.502250375062511,-0.44629920484676133,18
13.512252042007002,-0.49164824516522987,18
13.522253708951492,-0.527385759446952,18
13.532255375895984,-0.5731984055949477,18
13.542257042840474,-0.6340632058914861,18
13.552258709784965,-0.663778061647058,18
13.562260376729455,-0.6958922046257019,18
13.572262043673947,-0.7068745976676751,18
13.582263710618436,-0.7389727822160719,18
13.592265377562928,-0.7553463816746968,18
13.602267044507418,-0.7753108571247344,18
13.61226871145191,-0.7870387434991013,18
13.6222703783964,-0.763777435860304,18
13.63227204534089,-0.7778078011053495,18
13.642273712285382,-0.7522392180672528,18
13.652275379229872,-0.7568994615459925,18
13.662277046174363,-0.7369872458366914,18
13.672278713118853,-0.6790014131206706,18
13.682280380063345,-0.6684129839746942,18
13.692282047007835,-0.6025961667742216,18
13.702283713952326,-0.5682065879736413,18
13.712285380896816,-0.5151299115515414,18
13.722287047841307,-0.4335837849213027,18
13.732288714785797,-0.37719107290348375,18
13.742290381730289,-0.32129304724372637,18
13.75229204867478,-0.2425861472125516,18
13.76229371561927,-0.1716923506937385,18
13.772295382563762,-0.08207919205072964,18
13.782297049508252,-0.007808821266518797,18
13.792298716452743,0.05712323100877412,18
13.802300383397233,0.14171645541445962,18
13.812302050341724,0.202566300312793,18
13.822303717286214,0.2848786164956314,18
13.832305384230706,0.3389242795380367,18
13.842307051175196,0.409352471122678,18
13.852308718119687,0.46751050316836557,18
13.862310385064179,0.5424775841732722,18
13.872312052008668,0.6011146694217105,18
13.88231371895316,0.6224160905098934,18
13.89231538589765,0.7027280673083257,18
13.902317052842141,0.7029176459819512,18
13.912318719786631,0.7295781055094629,18
13.922320386731123,0.7434760552672278,18
13.932322053675612,0.7752843919041889,18
13.942323720620104,0.7722428253312874,18
13.952325387564594,0.7779731760462968,18
13.962327054509085,0.7814059494827297,18
13.972328721453577,0.7664118901939444,18
13.982330388398067,0.7373448002280355,18
13.992332055342558,0.7126393593100393,18
14.002333722287048,0.7024901547061775,18
14.01233538923154,0.6751288648853357,18
14.02233705617603,0.6407963069495007,18
14.032338723120521,0.5920206346936556,18
14.04234039006501,0.5517745989270736,18
14.052342057009502,0.4917527186390737,18
14.062343723953992,0.46339800808883813,18
14.072345390898484,0.4370670408480572,18
14.082347057842973,0.3928885221386727,18
14.092348724787465,0.3473359265528222,18
14.102350391731957,0.303251240022137,18
14.112352058676446,0.2694536106924616,18
14.122353725620938,0.22929500637863234,18
14.132355392565428,0.22316619718797187,18
14.14235705950992,0.16034745219660254,18
14.152358726454409,0.11367926093180405,18
14.1623603933989,0.1113570932579395,18
14.17236206034339,0.07565822900399359,18
14.182363727287882,0.061982127367238515,18
14.192365394232372,0.03573661382552651,18
14.202367061176863,0.03842131727959124,18
14.212368728121355,0.021668678907489868,18
14.222370395065845,0.00964031766351944,18
14.232372062010336,-0.008570901732809277,18
14.242373728954826,0.0011096145200130071,18
14.252375395899318,-0.01253989338193967,18
14.262377062843807,0.007597293985096712,18
14.272378729788299,-0.00748228455618586,18
14.282380396732789,-0.0005101407026864839,18
14.29238206367728,-0.011598937669098053,18
14.30238373062177,-0.011728052410066706,18
14.312385397566262,-0.010863058647314666,18
14.322387064510753,0.0008256444704250656,18
14.332388731455243,-0.016559906583023806,18
14.342390398399735,-0.01464669564341392,18
14.352392065344224,-0.011260922446104368,18
14.362393732288716,-0.04348948958823405,18
14.372395399233206,-0.06617509611496135,18
14.382397066177697,-0.07071235828194752,18
14.392398733122187,-0.0973457356362268,18
14.402400400066679,-0.13053474086410374,18
14.412402067011168,-0.16047431105548585,18
14.42240373395566,-0.1953626428568402,18
14.432405400900151,-0.2319610588058597,18
14.442407067844641,-0.2628830907789917,18
14.452408734789133,-0.30424376569060096,18
14.462410401733623,-0.34503722408155196,18
14.472412068678114,-0.3758736634827537,18
14.482413735622604,-0.4368424257258267,18
14.492415402567095,-0.4744826939698723,18
14.502417069511585,-0.518650642356506,18
14.512418736456077,-0.5514660260521881,18
14.522420403400567,-0.6200381444312525,18
14.532422070345058,-0.6291090202904212,18
14.542423737289548,-0.6789344879741667,18
14.55242540423404,-0.7125783210025748,18
14.562427071178531,-0.7302569914408142,18
14.57242873812302,-0.7368661228960552,18
14.582430405067512,-0.7680895891003681,18
14.592432072012002,-0.7686418707982255,18
14.602433738956494,-0.7927348957165383,18
14.612435405900984,-0.7812571598265385,18
14.622437072845475,-0.7485937454803376,18
14.632438739789965,-0.7483590081678168,18
14.642440406734456,-0.7339711509670652,18
14.652442073678946,-0.7082519652992924,18
14.662443740623438,-0.6922182950558364,18
14.67244540756793,-0.6187982313538242,18
14.68244707451242,-0.571662454961695,18
14.69244874145691,-0.5213741760483617,18
14.7024504084014,-0.47208987093048627,18
14.712452075345892,-0.4203639561889623,18
14.722453742290382,-0.34667428517473553,18
14.732455409234873,-0.28067034354032716,18
14.742457076179363,-0.19519595631928416,18
14.752458743123855,-0.11657394581869282,18
14.762460410068345,-0.05900218361098811,18
14.772462077012836,0.031226439884566297,18
14.782463743957328,0.11053198087077465,18
14.792465410901817,0.18190676223186655,18
14.802467077846309,0.24010788828936735,18
14.812468744790799,0.32823233378607103,18
14.82247041173529,0.4139593708196525,18
14.83247207867978,0.4402930354702361,18
14.842473745624272,0.5114053380636575,18
14.852475412568761,0.5757354722626576,18
14.862477079513253,0.6065672618376851,18
14.872478746457743,0.6784919678448149,18
14.882480413402234,0.6987661042178454,18
14.892482080346724,0.7144797709061477,18
14.902483747291216,0.7535009575262577,18
14.912485414235707,0.7506391974728359,18
14.922487081180197,0.7724478255383797,18
14.932488748124689,0.7858393486921977,18
14.942490415069178,0.784366794663762,18
14.95249208201367,0.7690900506148418,18
14.96249374895816,0.736755023174928,18
14.972495415902651,0.7411629016665077,18
14.982497082847141,0.7056450058071108,18
14.992498749791633,0.6668990608421879,18
15.002500416736122,0.665860740868516,18
15.012502083680614,0.6157463220291483,18
15.022503750625106,0.5652570348738525,18
15.032505417569595,0.5289052166788115,18
15.042507084514087,0.5003941829147027,18
15.052508751458577,0.4352987170748485,18
15.062510418403068,0.3899636969781589,18
15.072512085347558,0.3571225212131803,18
15.08251375229205,0.3001010256353887,18
15.09251541923654,0.2788882496489381,18
15.102517086181031,0.2256581105229505,18
15.11251875312552,0.20580123556763938,18
15.122520420070012,0.1637447470982156,18
15.132522087014504,0.14222088380201522,18
15.142523753958994,0.12026302469083636,18
15.152525420903485,0.07842004744548717,18
15.162527087847975,0.07765270703191612,18
15.172528754792467,0.058550682242087086,18
15.182530421736956,0.038033140807634966,18
15.192532088681448,0.03059487695986236,18
15.202533755625938,0.006344078081020223,18
15.21253542257043,0.011556062539197437,18
15.222537089514919,-0.0043534686801846665,18
15.23253875645941,0.0016041951639357687,18
15.2425404234039,0.0022047888584577954,18
15.252542090348392,-0.015193629082834304,18
15.262543757292883,0.010102206131143363,18
15.272545424237373,-0.010369224739981558,18
15.282547091181865,0.0027034346411350186,18
15.292548758126355,-5.0822572260706116e-05,18
15.302550425070846,-0.022403240411360235,18
15.312552092015336,-0.03446711164235274,18
15.322553758959828,-0.014335399227557171,18
15.332555425904317,-0.033017307471743584,18
15.342557092848809,-0.02139399012923845,18
15.352558759793299,-0.033512203401474885,18
15.36256042673779,-0.049694942100082365,18
15.372562093682282,-0.09015423035757349,18
15.382563760626772,-0.13075284661015615,18
15.392565427571263,-0.13800959997618914,18
15.402567094515753,-0.16901281445447602,18
15.412568761460244,-0.21591118235478338,18
15.422570428404734,-0.23682347301313847,18
15.432572095349226,-0.3011145443392748,18
15.442573762293716,-0.3296241731439851,18
15.452575429238207,-0.3733138578584326,18
15.462577096182697,-0.4197259245873804,18
15.472578763127188,-0.4526366537614893,18
15.48258043007168,-0.4974448786815861,18
15.49258209701617,-0.5387676637284159,18
15.502583763960661,-0.5928193561832696,18
15.512585430905151,-0.6139009182478672,18
15.522587097849643,-0.6576790959334521,18
15.532588764794133,-0.713944515150516,18
15.542590431738624,-0.7257581774474843,18
15.552592098683114,-0.7407657219974317,18
15.562593765627605,-0.76739822293592,18
15.572595432572095,-0.7712018121930236,18
15.582597099516587,-0.7785880542027571,18
15.592598766461077,-0.7822823709154333,18
15.602600433405568,-0.7834447019280916,18
15.61260210035006,-0.7572026249743035,18
15.62260376729455,-0.7400909390554313,18
15.632605434239041,-0.7106278472069656,18
15.64260710118353,-0.6978295752217153,18
15.652608768128022,-0.6505467771733979,18
15.662610435072512,-0.6143289174428558,18
15.672612102017004,-0.5384940320116118,18
15.682613768961494,-0.5121440739662262,18
15.692615435905985,-0.43129254309554726,18
15.702617102850475,-0.3724363319759873,18
15.712618769794966,-0.304424521897787,18
15.722620436739458,-0.23435102434986846,18
15.732622103683948,-0.15718139010701282,18
15.74262377062844,-0.08326346888769356,18
15.752625437572929,-0.02068233023636259,18
15.76262710451742,0.04531716607650904,18
15.77262877146191,0.1552471064117346,18
15.782630438406402,0.22095590912122792,18
15.792632105350892,0.28547183995225317,18
15.802633772295383,0.36921061131695715,18
15.812635439239873,0.4416707625177583,18
15.822637106184365,0.488789136627785,18
15.832638773128856,0.5547831705159425,18
15.842640440073346,0.6012370819838033,18
15.852642107017838,0.6517655801155704,18
15.862643773962327,0.6945490333224961,18
15.872645440906819,0.7042819998020869,18
15.882647107851309,0.7394135004664021,18
15.8926487747958,0.769831275182353,18
15.90265044174029,0.765530463602981,18
15.912652108684782,0.8017148795694379,18
15.922653775629271,0.7764850090400882,18
15.932655442573763,0.7855262261944329,18
15.942657109518253,0.7662689885937676,18
15.952658776462744,0.7277856536569796,18
15.962660443407236,0.7164829747363397,18
15.972662110351726,0.7118065102887684,18
15.982663777296217,0.6665899024409959,18
15.992665444240707,0.6316124342325902,18
16.002667111185197,0.5877378014201741,18
16.01266877812969,0.5571113065814568,18
16.02267044507418,0.5151930685178717,18
16.03267211201867,0.46752532170606453,18
16.04267377896316,0.42310885369395723,18
16.052675445907653,0.36245154859493367,18
16.062677112852143,0.3442130264390911,18
16.072678779796632,0.2837529988363892,18
16.082680446741126,0.24897354941389108,18
16.092682113685616,0.22555675116814067,18
16.102683780630105,0.18161600951101273,18
16.112685447574595,0.15948263154169232,18
16.12268711451909,0.11887538080331946,18
16.132688781463578,0.11976745519963923,18
16.142690448408068,0.0829967139904141,18
16.152692115352558,0.07871592498793313,18
16.16269378229705,0.03873795833438666,18
16.17269544924154,0.03927831801867307,18
16.18269711618603,0.007668013170337228,18
16.192698783130524,0.008055472424664837,18
16.202700450075014,0.01222945531572961,18
16.212702117019504,-0.005849102958429142,18
16.222703783963993,-0.015368392842877325,18
16.232705450908487,0.013345420664715219,18
16.242707117852976,0.004401015872937802,18
16.252708784797466,0.007682442495650844,18
16.262710451741956,-0.00552992460763806,18
16.27271211868645,0.0008090062729800974,18
16.28271378563094,0.0073061262348070866,18
16.29271545257543,-0.005533337707735054,18
16.302717119519922,-0.0153768201310121,18
16.312718786464412,-0.014168311991094248,18
16.322720453408902,-0.046818910431876984,18
16.33272212035339,-0.017043586886767402,18
16.342723787297885,-0.05443998848195651,18
16.352725454242375,-0.08917694077214279,18
16.362727121186865,-0.0933589417357658,18
16.372728788131354,-0.12795138575085016,18
16.382730455075848,-0.1685876012429598,18
16.392732122020337,-0.20362269838283717,18
16.402733788964827,-0.2517300849909397,18
16.41273545590932,-0.2646243980076047,18
16.42273712285381,-0.30258653943362934,18
16.4327387897983,-0.34664777032829475,18
16.44274045674279,-0.39272204725693716,18
16.452742123687283,-0.4361186804912888,18
16.462743790631773,-0.47935399037807536,18
16.472745457576263,-0.5371933537592595,18
16.482747124520753,-0.5656738113175322,18
16.492748791465246,-0.5965229248541378,18
16.502750458409736,-0.6315164549987236,18
16.512752125354226,-0.6715703922292791,18
16.522753792298715,-0.7193969345599724,18
16.53275545924321,-0.7287212863921849,18
16.5427571261877,-0.7449215525727538,18
16.55275879313219,-0.7690843544229079,18
16.56276046007668,-0.7840325495528735,18
16.57276212702117,-0.7896844594463326,18
16.58276379396566,-0.7686743802264625,18
16.59276546091015,-0.7657258438744909,18
16.602767127854644,-0.7763053334272233,18
16.612768794799134,-0.7276097429937832,18
16.622770461743624,-0.6980248848059291,18
16.632772128688114,-0.6673035261773456,18
16.642773795632607,-0.6227001327796093,18
16.652775462577097,-0.5782022313475552,18
16.662777129521587,-0.5233002065512319,18
16.67277879646608,-0.47127969821268917,18
16.68278046341057,-0.40345970563091893,18
16.69278213035506,-0.33531803475641825,18
16.70278379729955,-0.2712514566116466,18
16.712785464244043,-0.18943204151476187,18
16.722787131188532,-0.11119007791652392,18
16.732788798133022,-0.058599938230506174,18
16.742790465077512,0.03354595849863515,18
16.752792132022005,0.12183351565773018,18
16.762793798966495,0.16632538667797356,18
16.772795465910985,0.2676489691353055,18
16.782797132855478,0.3246208897828505,18
16.792798799799968,0.39718010620581345,18
16.802800466744458,0.46246553659054124,18
16.812802133688947,0.5207902708425992,18
16.82280380063344,0.5767025334088176,18
16.83280546757793,0.6079250322574729,18
16.84280713452242,0.6579029704450314,18
16.85280880146691,0.7111129364825344,18
16.862810468411404,0.7321705466886159,18
16.872812135355893,0.7651804001141199,18
16.882813802300383,0.773941482598125,18
16.892815469244876,0.7694103331355006,18
16.902817136189366,0.7809779231272203,18
16.912818803133856,0.802484664745531,18
16.922820470078346,0.7541471711870695,18
16.93282213702284,0.7384960161605241,18
16.94282380396733,0.7338976106709766,18
16.95282547091182,0.7000102849700215,18
16.96282713785631,0.661564645824487,18
16.972828804800802,0.6436800551201792,18
16.98283047174529,0.6089894628343984,18
16.99283213868978,0.5446773625357376,18
17.002833805634275,0.5458910746628874,18
17.012835472578764,0.48200759867797216,18
17.022837139523254,0.4220025984483736,18
17.032838806467744,0.3958214992879542,18
17.042840473412237,0.36635537533700063,18
17.052842140356727,0.32392032602715914,18
17.062843807301217,0.27073625681782937,18
17.072845474245707,0.23409210336850747,18
17.0828471411902,0.20481846974774912,18
17.09284880813469,0.1638654320711727,18
17.10285047507918,0.14970218518104814,18
17.112852142023673,0.10745531013802392,18
17.122853808968163,0.09383432538231032,18
17.132855475912653,0.06448885823676179,18
17.142857142857142,0.04011288990215501,18
17.152858809801636,0.04754181738797238,18
17.162860476746125,0.009931690275831195,18
17.172862143690615,-0.00041900212116148874,18
17.182863810635105,0.022038648363627088,18
17.1928654775796,-0.00844461573526292,18
17.202867144524088,-0.0027384482881652713,18
17.212868811468578,-0.004627225066619136,18
17.222870478413068,-0.004644867513344922,18
17.23287214535756,0.011380415986256038,18
17.24287381230205,-0.014038671959644054,18
17.25287547924654,-0.0033106762089520534,18
17.262877146191034,-0.014088897608136315,18
17.272878813135524,-0.011254040909838624,18
17.282880480080014,-0.006726962942370745,18
17.292882147024503,-0.038305951757135914,18
17.302883813968997,-0.02656915602090368,18
17.312885480913486,-0.02766741713769723,18
17.322887147857976,-0.038458776407432775,18
17.332888814802466,-0.08863631833394871,18
17.34289048174696,-0.10565807643566728,18
17.35289214869145,-0.114331585448719,18
17.36289381563594,-0.15849313776336021,18
17.372895482580432,-0.18427366379534985,18
17.382897149524922,-0.20579939818148402,18
17.392898816469412,-0.2635843304811769,18
17.4029004834139,-0.32677129199995597,18
17.412902150358395,-0.31929230826969796,18
17.422903817302885,-0.37965931264921177,18
17.432905484247375,-0.42223317204202315,18
17.442907151191864,-0.46595622628458555,18
17.452908818136358,-0.5149204668079186,18
17.462910485080847,-0.5412279746900495,18
17.472912152025337,-0.603252053923954,18
17.48291381896983,-0.6276343531704109,18
17.49291548591432,-0.6507855240346919,18
17.50291715285881,-0.701018182053591,18
17.5129188198033,-0.7183658414686656,18
17.522920486747793,-0.7425617876020244,18
17.532922153692283,-0.7545159162792232,18
17.542923820636773,-0.7759118915602654,18
17.552925487581263,-0.7962649272292937,18
17.562927154525756,-0.7861785812161283,18
17.572928821470246,-0.7762971649816538,18
17.582930488414735,-0.7813792129405709,18
17.59293215535923,-0.7354553411725767,18
17.60293382230372,-0.7131796550689292,18
17.61293548924821,-0.6796408720102143,18
17.622937156192698,-0.6363065441995557,18
17.63293882313719,-0.591463622652341,18
17.64294049008168,-0.5592541241958253,18
17.65294215702617,-0.48118302297934373,18
17.66294382397066,-0.43657391578445454,18
17.672945490915154,-0.3699500809772084,18
17.682947157859644,-0.2829271561110834,18
17.692948824804134,-0.22501425411779588,18
17.702950491748627,-0.15334702243896484,18
17.712952158693117,-0.08664161895809908,18
17.722953825637607,0.0042101432424871185,18
17.732955492582096,0.09100439050659007,18
17.74295715952659,0.1567894233935034,18
17.75295882647108,0.228485671330277,18
17.76296049341557,0.2969639450672879,18
17.77296216036006,0.36735360725043287,18
17.782963827304552,0.42859646905417,18
17.792965494249042,0.48839062117532783,18
17.802967161193532,0.541999547825823,18
17.812968828138025,0.5948270738799302,18
17.822970495082515,0.6542413452552072,18
17.832972162027005,0.6809922449868437,18
17.842973828971495,0.708494903259829,18
17.852975495915988,0.7339553743660869,18
17.862977162860478,0.7749282684434036,18
17.872978829804968,0.7872817681272877,18
17.882980496749457,0.7804062957718256,18
17.89298216369395,0.7609068218092927,18
17.90298383063844,0.7762354814990706,18
17.91298549758293,0.7618108316072084,18
17.92298716452742,0.7253305525917562,18
17.932988831471913,0.7194831503289643,18
17.942990498416403,0.6941173543430833,18
17.952992165360893,0.6726561404525468,18
17.962993832305386,0.6336163352040819,18
17.972995499249876,0.5697855003543444,18
17.982997166194366,0.5296082470245704,18
17.992998833138856,0.5158098615710748,18
18.00300050008335,0.4716789037420379,18
18.01300216702784,0.4172124185582322,18
18.02300383397233,0.3833631941225832,18
18.03300550091682,0.3213114296912702,18
18.04300716786131,0.2882498131115221,18
18.0530088348058,0.24927373276012058,18
18.06301050175029,0.2058728988223373,18
18.073012168694785,0.18569393337594195,18
18.083013835639274,0.13505569426979286,18
18.093015502583764,0.1346081833283596,18
18.103017169528254,0.09847683896896474,18
18.113018836472747,0.07327750802175631,18
18.123020503417237,0.046606534410244545,18
18.133022170361727,0.053499043189522706,18
18.143023837306217,0.031806692105360496,18
18.15302550425071,0.02044547044615991,18
18.1630271711952,0.027179765319554527,18
18.17302883813969,0.0038645953804655455,18
18.183030505084183,-0.011139754134789848,18
18.193032172028673,-0.0038744745572416063,18
18.203033838973163,0.013059488430965547,18
18.213035505917652,-0.023963874373263715,18
18.223037172862146,0.005121924767967686,18
18.233038839806635,-0.0027394195888289633,18
18.243040506751125,-0.008517893985420511,18
18.253042173695615,-0.008439983211289945,18
18.26304384064011,0.0040707170943480395,18
18.273045507584598,-0.026806816425919408,18
18.283047174529088,-0.026291814738369185,18
18.29304884147358,-0.02778731934494344,18
18.30305050841807,-0.03917509847742941,18
18.31305217536256,-0.07210681268173522,18
18.32305384230705,-0.09905077309938612,18
18.333055509251544,-0.11168255674546441,18
18.343057176196034,-0.12743036714541797,18
18.353058843140523,-0.1603802318018439,18
18.363060510085013,-0.19805842723933556,18
18.373062177029507,-0.2543391413303073,18
18.383063843973996,-0.2805084909398633,18
18.393065510918486,-0.31442034084199344,18
18.40306717786298,-0.34948072941788705,18
18.41306884480747,-0.40319377226380493,18
18.42307051175196,-0.45459668951719895,18
18.43307217869645,-0.4930249515920299,18
18.443073845640942,-0.5286800125963552,18
18.453075512585432,-0.551339610333227,18
18.463077179529922,-0.6061335733759526,18
18.47307884647441,-0.6494441214151375,18
18.483080513418905,-0.6621606494624468,18
18.493082180363395,-0.7011436715727083,18
18.503083847307884,-0.7282263006320289,18
18.513085514252378,-0.7560604632807199,18
18.523087181196868,-0.7723066250014351,18
18.533088848141357,-0.7791626220076253,18
18.543090515085847,-0.7800950351892854,18
18.55309218203034,-0.7672382505104349,18
18.56309384897483,-0.7776036665399271,18
18.57309551591932,-0.7616401280001391,18
18.58309718286381,-0.7262451752981494,18
18.593098849808303,-0.703474400910888,18
18.603100516752793,-0.6753487327892779,18
18.613102183697283,-0.6371743462175795,18
18.623103850641776,-0.5758928006393857,18
18.633105517586266,-0.5088145538579965,18
18.643107184530756,-0.45569610616022177,18
18.653108851475245,-0.37679681078558386,18
18.66311051841974,-0.3108730948994193,18
18.67311218536423,-0.24470796699441932,18
18.68311385230872,-0.1792801214348434,18
18.693115519253208,-0.11136981096938632,18
18.7031171861977,-0.02529550424668602,18
18.71311885314219,0.04667025893540036,18
18.72312052008668,0.1032083449916232,18
18.73312218703117,0.19649366918354388,18
18.743123853975664,0.259209312936885,18
18.753125520920154,0.33293421953256996,18
18.763127187864644,0.4006333295004714,18
18.773128854809137,0.48033877647594053,18
18.783130521753627,0.5428047682686296,18
18.793132188698117,0.5786542133815045,18
18.803133855642606,0.6143704918685934,18
18.8131355225871,0.6745381834531188,18
18.82313718953159,0.7044354315394352,18
18.83313885647608,0.7227791041277369,18
18.84314052342057,0.7521127903211006,18
18.853142190365062,0.7647230735725448,18
18.863143857309552,0.7922011354304062,18
18.873145524254042,0.77236578110989,18
18.883147191198535,0.7823366062922936,18
18.893148858143025,0.783643050902531,18
18.903150525087515,0.7586884337670177,18
18.913152192032005,0.7268959761903381,18
18.923153858976498,0.699816410877346,18
18.933155525920988,0.6791540517342772,18
18.943157192865478,0.6269416606521083,18
18.953158859809967,0.5870326442947801,18
18.96316052675446,0.5660018673665912,18
18.97316219369895,0.5131463548545526,18
18.98316386064344,0.48577823654748176,18
18.993165527587934,0.42714110276612915,18
19.003167194532423,0.38341337883283844,18
19.013168861476913,0.3421799845605367,18
19.023170528421403,0.31481715903546065,18
19.033172195365896,0.2639112569683189,18
19.043173862310386,0.24530527520936016,18
19.053175529254876,0.20000713456559205,18
19.063177196199366,0.16525621613850044,18
19.07317886314386,0.1420736786080278,18
19.08318053008835,0.10789873696315797,18
19.09318219703284,0.08415367423499447,18
19.103183863977332,0.0667904852589716,18
19.11318553092182,0.049912131634762914,18
19.12318719786631,0.023957462219823505,18
19.1331888648108,0.028426831439901535,18
19.143190531755295,0.00956618241791159,18
19.153192198699784,0.004225066847661125,18
19.163193865644274,-0.018627047266257173,18
19.173195532588764,-0.015417173136400977,18
19.183197199533257,-0.01944580931304045,18
19.193198866477747,0.0064185529816570075,18
19.203200533422237,-0.0032266896533881817,18
19.21320220036673,0.004334160099541586,18
19.22320386731122,0.0010239438983451056,18
19.23320553425571,0.0044189849153788464,18
19.2432072012002,-0.0002171014944082894,18
19.253208868144693,-0.003692882085078746,18
19.263210535089183,-0.021004042476119075,18
19.273212202033672,-0.01759492652549939,18
19.283213868978162,-0.047200817713602114,18
19.293215535922656,-0.053091353443312686,18
19.303217202867145,-0.08199164340898726,18
19.313218869811635,-0.08141209068008838,18
19.32322053675613,-0.13161678533804858,18
19.33322220370062,-0.1618745654313923,18
19.343223870645108,-0.18577977727141848,18
19.353225537589598,-0.20442953025138036,18
19.36322720453409,-0.2645222331697472,18
19.37322887147858,-0.28323917429307954,18
19.38323053842307,-0.33982559467790746,18
19.39323220536756,-0.3888475941036854,18
19.403233872312054,-0.4259672284364457,18
19.413235539256544,-0.4680651823479025,18
19.423237206201033,-0.5130882388995248,18
19.433238873145523,-0.5579393048629672,18
19.443240540090017,-0.588905466311055,18
19.453242207034506,-0.6243733204514449,18
19.463243873978996,-0.6858283278981846,18
19.47324554092349,-0.6853890927276114,18
19.48324720786798,-0.7135299309638538,18
19.49324887481247,-0.7426390532622356,18
19.50325054175696,-0.7699568219231511,18
19.513252208701452,-0.7847073403110598,18
19.523253875645942,-0.7940235982881567,18
19.53325554259043,-0.7741243592594412,18
19.54325720953492,-0.7752375287658374,18
19.553258876479415,-0.7596227264284173,18
19.563260543423905,-0.737456669163324,18
19.573262210368394,-0.7034152494281033,18
19.583263877312888,-0.6756407729233286,18
19.593265544257378,-0.632282227032799,18
19.603267211201867,-0.5824391019001441,18
19.613268878146357,-0.5422066494292183,18
19.62327054509085,-0.4774520800458598,18
19.63327221203534,-0.4348857671737283,18
19.64327387897983,-0.3473932393280484,18
19.65327554592432,-0.2795173993952098,18
19.663277212868813,-0.22650517769309614,18
19.673278879813303,-0.14573606568023906,18
19.683280546757793,-0.06229807326533247,18
19.693282213702286,0.010562035748089874,18
19.703283880646776,0.09377489887131821,18
19.713285547591266,0.1685491944268418,18
19.723287214535755,0.23606247741097514,18
19.73328888148025,0.2960437865192547,18
19.74329054842474,0.39665806190092956,18
19.75329221536923,0.45070391390523035,18
19.763293882313718,0.498960188926187,18
19.77329554925821,0.5643579101849835,18
19.7832972162027,0.6070477102449999,18
19.79329888314719,0.6326638703943803,18
19.803300550091684,0.68585476896464,18
19.813302217036174,0.731852699821413,18
19.823303883980664,0.7448982256028291,18
19.833305550925154,0.7590782965355086,18
19.843307217869647,0.7614218711040982,18
19.853308884814137,0.7811710933206061,18
19.863310551758627,0.7651185041224752,18
19.873312218703116,0.76876340453244,18
19.88331388564761,0.7639040985157957,18
19.8933155525921,0.7357053008727338,18
19.90331721953659,0.709606990877627,18
19.913318886481083,0.6770506333818987,18
19.923320553425572,0.6516302380821181,18
19.933322220370062,0.596434580942416,18
19.943323887314552,0.5734387522298283,18
19.953325554259045,0.5506213875521996,18
19.963327221203535,0.49462166452528655,18
19.973328888148025,0.45414353132445645,18
19.983330555092515,0.4061929451066075,18
19.993332222037008,0.36101270621697823,18
20.003333888981498,0.3414624963544498,18
20.013335555925988,0.27879773068516267,18
20.02333722287048,0.25953051534866145,18
20.03333888981497,0.20566377220440482,18
20.04334055675946,0.1865533990363027,18
20.05334222370395,0.14752731667891938,18
20.063343890648444,0.10665801563740075,18
20.073345557592933,0.1038263101600477,18
20.083347224537423,0.06742896508009799,18
20.093348891481913,0.05727975274763931,18
20.103350558426406,0.021335444064048227,18
20.113352225370896,0.011181574016721561,18
20.123353892315386,0.009284967327707165,18
20.133355559259876,0.0027585031250153347,18
20.14335722620437,0.018758993271518313,18
20.15335889314886,0.010249686807155848,18
20.16336056009335,0.004174080422941061,18
20.173362227037842,-0.0010987755956922965,18
20.18336389398233,0.003643153044097564,18
20.19336556092682,-0.004978739381868565,18
20.20336722787131,0.0006761447140223493,18
20.213368894815805,-0.00555370832283705,18
20.223370561760294,0.003346892845787857,18
20.233372228704784,-0.010077107454006843,18
20.243373895649274,-0.0177780442606091,18
20.253375562593767,-0.013409079837661105,18
20.263377229538257,-0.02240121763269637,18
20.273378896482747,-0.05359820627628102,18
20.28338056342724,-0.04657816683210248,18
20.29338223037173,-0.09531327584726466,18
20.30338389731622,-0.10276838614798164,18
20.31338556426071,-0.15740996204222418,18
20.323387231205203,-0.17750086384142155,18
20.333388898149693,-0.2024032414679962,18
20.343390565094182,-0.24257551319256818,18
20.353392232038672,-0.29082465050976225,18
20.363393898983166,-0.3176247146368724,18
20.373395565927655,-0.3582744675779666,18
20.383397232872145,-0.39932134778422823,18
20.39339889981664,-0.4525963106819087,18
20.40340056676113,-0.5006720900095872,18
20.413402233705618,-0.5393211576693483,18
20.423403900650108,-0.5783169024901835,18
20.4334055675946,-0.6195118390252519,18
20.44340723453909,-0.6310701345986033,18
20.45340890148358,-0.6929246069838961,18
20.46341056842807,-0.7107474077858754,18
20.473412235372564,-0.7423608711939973,18
20.483413902317054,-0.7430801126522487,18
20.493415569261543,-0.759070850588749,18
20.503417236206037,-0.7825289217157744,18
20.513418903150527,-0.7629423415565489,18
20.523420570095016,-0.7797727189806245,18
20.533422237039506,-0.7485952681441659,18
20.543423903984,-0.7469818706417309,18
20.55342557092849,-0.7178529912876903,18
20.56342723787298,-0.6822072216624061,18
20.57342890481747,-0.6834831998190873,18
20.583430571761962,-0.6119818130915111,18
20.593432238706452,-0.5544502234770265,18
20.60343390565094,-0.48866418118452365,18
20.613435572595435,-0.4667024084992903,18
20.623437239539925,-0.40769829285187975,18
20.633438906484415,-0.3304430944484408,18
20.643440573428904,-0.2427739851178362,18
20.653442240373398,-0.18372959409171918,18
20.663443907317887,-0.09347983978069176,18
20.673445574262377,-0.020713766153872028,18
20.683447241206867,0.0516227870117925,18
20.69344890815136,0.12443555759215519,18
20.70345057509585,0.2146314808095189,18
20.71345224204034,0.28817267834501137,18
20.723453908984833,0.3433940053544553,18
20.733455575929323,0.4184266427337703,18
20.743457242873813,0.4726587253677231,18
20.753458909818303,0.5355225372929103,18
20.763460576762796,0.5881173421393936,18
20.773462243707286,0.6309316214183853,18
20.783463910651776,0.6512622583050002,18
20.793465577596265,0.7182012370687777,18
20.80346724454076,0.7467321569212935,18
20.81346891148525,0.7682102922554919,18
20.82347057842974,0.7813172989005884,18
20.83347224537423,0.7683259366480976,18
20.84347391231872,0.7787345405541266,18
20.85347557926321,0.7702415573575466,18
20.8634772462077,0.7655190276933557,18
20.873478913152194,0.7510908438992353,18
20.883480580096684,0.7349337209533514,18
20.893482247041174,0.7016469217351167,18
20.903483913985664,0.6793189054257547,18
20.913485580930157,0.614882748920286,18
20.923487247874647,0.5903653753614995,18
20.933488914819137,0.555179716906632,18
20.943490581763626,0.5096182728983172,18
20.95349224870812,0.49786002061501405,18
20.96349391565261,0.4173173389812419,18
20.9734955825971,0.3881745177830377,18
20.983497249541593,0.36861223455328934,18
20.993498916486082,0.32532774625928085,18
21.003500583430572,0.26555924456750557,18
21.013502250375062,0.23318529803849786,18
21.023503917319555,0.20199835882781683,18
21.033505584264045,0.16802875592160288,18
21.043507251208535,0.1345874359468799,18
21.053508918153025,0.09991180116542923,18
21.063510585097518,0.08582736541295725,18
21.073512252042008,0.06039240499104585,18
21.083513918986498,0.055262790961549235,18
21.09351558593099,0.04449995378009567,18
21.10351725287548,0.011977674843246853,18
21.11351891981997,0.009772655936954016,18
21.12352058676446,0.00016453948848097876,18
21.133522253708954,0.003574585980650231,18
21.143523920653443,-0.0014140860674569998,18
21.153525587597933,-0.012956814337033041,18
21.163527254542423,0.008873154083582812,18
21.173528921486916,0.0009679281634704468,18
21.183530588431406,-0.014378129984480887,18
21.193532255375896,-0.021680642342029374,18
21.20353392232039,-0.01578538102795879,18
21.21353558926488,-0.0172203609621773,18
21.22353725620937,-0.0075351067282066996,18
21.23353892315386,-0.011494444237384108,18
21.243540590098352,-0.04840096940396732,18
21.25354225704284,-0.04673899847782185,18
21.26354392398733,-0.04640971573938745,18
21.27354559093182,-0.07762452441841163,18
21.283547257876315,-0.11452277634221496,18
21.293548924820804,-0.1361310173492132,18
21.303550591765294,-0.14781744168665586,18
21.313552258709787,-0.18531593483356554,18
21.323553925654277,-0.2272859009077033,18
21.333555592598767,-0.2593268981946362,18
21.343557259543257,-0.3060778819230184,18
21.35355892648775,-0.3437622525077799,18
21.36356059343224,-0.40552277489015337,18
21.37356226037673,-0.42990800253783934,18
21.38356392732122,-0.47447073440002785,18
21.393565594265713,-0.5165487312725541,18
21.403567261210203,-0.5500371397375705,18
21.413568928154692,-0.5886854969897706,18
21.423570595099186,-0.6238863676366647,18
21.433572262043675,-0.6850262646573201,18
21.443573928988165,-0.6827864196280673,18
21.453575595932655,-0.7493892013253962,18
21.46357726287715,-0.7285314370553176,18
21.473578929821638,-0.7584555595879533,18
21.483580596766128,-0.7722889205812195,18
21.493582263710618,-0.7811344485480499,18
21.50358393065511,-0.7618140301469305,18
21.5135855975996,-0.748029705108037,18
21.52358726454409,-0.7459546192291655,18
21.533588931488584,-0.7195206087245221,18
21.543590598433074,-0.7038100840810223,18
21.553592265377564,-0.6506451176777519,18
21.563593932322053,-0.6333306224867663,18
21.573595599266547,-0.5877430412472662,18
21.583597266211036,-0.5273985475354924,18
21.593598933155526,-0.48081764357214163,18
21.603600600100016,-0.41193353232145785,18
21.61360226704451,-0.36095680682674913,18
21.623603933989,-0.2819658564678596,18
21.63360560093349,-0.2158369712414959,18
21.64360726787798,-0.13273816801270685,18
21.653608934822472,-0.07900629076116017,18
21.663610601766962,-0.0022310671574090786,18
21.67361226871145,0.10191164942419581,18
21.683613935655945,0.17117498248709642,18
21.693615602600435,0.239000968125575,18
21.703617269544925,0.3126903148520981,18
21.713618936489414,0.3717113986036896,18
21.723620603433908,0.43791368283116705,18
21.733622270378397,0.49382936554394735,18
21.743623937322887,0.5777257938705246,18
21.753625604267377,0.6199860248482018,18
21.76362727121187,0.6637917329080455,18
21.77362893815636,0.7229880159581139,18
21.78363060510085,0.7362239554831571,18
21.793632272045343,0.7480156988848158,18
21.803633938989833,0.7727228285537726,18
21.813635605934323,0.7880155164500405,18
21.823637272878813,0.7722935654282763,18
21.833638939823306,0.7724080938966524,18
21.843640606767796,0.7606986657013555,18
21.853642273712286,0.7616971437272121,18
21.863643940656775,0.7219912649168521,18
21.87364560760127,0.7131119406617189,18
21.88364727454576,0.7016745815197829,18
21.893648941490248,0.6463763861382605,18
21.90365060843474,0.6157748738291606,18
21.91365227537923,0.5830980635019719,18
21.92365394232372,0.5264886912022567,18
21.93365560926821,0.4981015619675883,18
21.943657276212704,0.4567278850290079,18
21.953658943157194,0.4216960324338659,18
21.963660610101684,0.3649070301042035,18
21.973662277046174,0.3152184589419467,18
21.983663943990667,0.2763283025307698,18
21.993665610935157,0.23229229601360638,18
22.003667277879646,0.19818024832224268,18
22.01366894482414,0.15910199008289044,18
22.02367061176863,0.1411220023085006,18
22.03367227871312,0.12326305811759941,18
22.04367394565761,0.08812783282001527,18
22.053675612602103,0.07093913189846156,18
22.063677279546592,0.05514835807842165,18
22.073678946491082,0.02798214467952017,18
22.083680613435572,0.03893642454012403,18
22.093682280380065,0.024035706683580425,18
22.103683947324555,-0.006147707697716201,18
22.113685614269045,0.0070390291320018335,18
22.123687281213538,-0.000668999602400285,18
22.133688948158028,-0.028354409893620716,18
22.143690615102518,-0.008143490601997897,18
22.153692282047007,0.00920575634582725,18
22.1636939489915,-0.007273524937351768,18
22.17369561593599,-0.002194912020367935,18
22.18369728288048,-0.0019254170235333376,18
22.19369894982497,-0.007850619992236584,18
22.203700616769463,-0.018488749657076017,18
22.213702283713953,-0.018869685247572616,18
22.223703950658443,-0.027644755019816496,18
22.233705617602936,-0.04407257358458077,18
22.243707284547426,-0.06616498214241737,18
22.253708951491916,-0.08415830532115065,18
22.263710618436406,-0.09304852481763373,18
22.2737122853809,-0.1113476237708763,18
22.28371395232539,-0.15292002483202186,18
22.29371561926988,-0.16460873959516348,18
22.30371728621437,-0.2172449766688726,18
22.313718953158862,-0.23057901602556982,18
22.32372062010335,-0.2977323036636604,18
22.33372228704784,-0.3262864058885236,18
22.34372395399233,-0.3661606205504937,18
22.353725620936824,-0.4077991667192676,18
22.363727287881314,-0.44637743024346516,18
22.373728954825804,-0.4795867976066995,18
22.383730621770297,-0.5308620743124103,18
22.393732288714787,-0.5778796790909632,18
22.403733955659277,-0.6188751023590056,18
22.413735622603767,-0.659035963328718,18
22.42373728954826,-0.6715724151464124,18
22.43373895649275,-0.7042478287638916,18
22.44374062343724,-0.733502503258356,18
22.45374229038173,-0.7449279351745876,18
22.463743957326223,-0.7661199881110946,18
22.473745624270713,-0.7505661082606873,18
22.483747291215202,-0.7877877190151831,18
22.493748958159696,-0.7730267015192641,18
22.503750625104185,-0.7740029168514541,18
22.513752292048675,-0.7408118703786339,18
22.523753958993165,-0.7374128747947849,18
22.53375562593766,-0.689148781965434,18
22.543757292882148,-0.6637201006943828,18
22.553758959826638,-0.6003363130616004,18
22.563760626771128,-0.5701933950460026,18
22.57376229371562,-0.5089810453815827,18
22.58376396066011,-0.4538724637060341,18
22.5937656276046,-0.3869070733231277,18
22.603767294549094,-0.3040429072854711,18
22.613768961493584,-0.2422212898776804,18
22.623770628438074,-0.15968382372340015,18
22.633772295382563,-0.09277405770057792,18
22.643773962327057,-0.01845170857342404,18
22.653775629271546,0.06135325869744035,18
22.663777296216036,0.1536668963640933,18
22.673778963160526,0.1980546934719823,18
22.68378063010502,0.2794605901533711,18
22.69378229704951,0.34516848857191124,18
22.703783963994,0.42100013607467524,18
22.713785630938492,0.479157765839189,18
22.723787297882982,0.5270801473542261,18
22.733788964827472,0.5949419252549194,18
22.74379063177196,0.6287554242511582,18
22.753792298716455,0.6716536830585884,18
22.763793965660945,0.7106780943523234,18
22.773795632605434,0.7208934509959063,18
22.783797299549924,0.779559368782019,18
22.793798966494418,0.7654329514103758,18
22.803800633438907,0.777026778124031,18
22.813802300383397,0.7796184104316339,18
22.82380396732789,0.7757678237627026,18
22.83380563427238,0.743810427769215,18
22.84380730121687,0.7551628506089179,18
22.85380896816136,0.7346848657297653,18
22.863810635105853,0.6920561234193664,18
22.873812302050343,0.6679736741901621,18
22.883813968994833,0.6264162553990738,18
22.893815635939323,0.6062078884240565,18
22.903817302883816,0.5442542983629025,18
22.913818969828306,0.5217184260559016,18
22.923820636772795,0.4585148588080978,18
22.93382230371729,0.4218756734577838,18
22.94382397066178,0.3866293951823059,18
22.95382563760627,0.335534487072526,18
22.963827304550758,0.29943775544371726,18
22.97382897149525,0.2628580346563338,18
22.98383063843974,0.20285084451278418,18
22.99383230538423,0.18547808395403909,18
23.00383397232872,0.15666002132956713,18
23.013835639273214,0.13554311789373383,18
23.023837306217704,0.11298586799141999,18
23.033838973162194,0.0847223769145869,18
23.043840640106687,0.06788176072530966,18
23.053842307051177,0.049979624045930225,18
23.063843973995667,0.017633334422042853,18
23.073845640940156,0.024252599950740757,18
23.08384730788465,0.014610197140821846,18
23.09384897482914,0.008459187019420496,18
23.10385064177363,0.0032499420608703812,18
23.11385230871812,0.02825843327511307,18
23.123853975662612,0.017957674064466057,18
23.133855642607102,0.002741914362590714,18
23.143857309551592,0.01103038050260514,18
23.153858976496082,0.009974734501632943,18
23.163860643440575,0.0027081863452092687,18
23.173862310385065,0.001638101018915348,18
23.183863977329555,-0.00441137281366078,18
23.193865644274048,-0.007263938862382975,18
23.203867311218538,-0.024410748188172484,18
23.213868978163028,-0.02397682883408929,18
23.223870645107517,-0.055158338846027874,18
23.23387231205201,-0.0512398685518168,18
23.2438739789965,-0.09205520304837643,18
23.25387564594099,-0.11186940457335372,18
23.26387731288548,-0.13338482253299036,18
23.273878979829973,-0.18489136711390988,18
23.283880646774463,-0.18777425434080824,18
23.293882313718953,-0.22800238868003048,18
23.303883980663446,-0.28585730615868726,18
23.313885647607936,-0.2906666761572432,18
23.323887314552426,-0.34487152161009144,18
23.333888981496916,-0.38018010557969417,18
23.34389064844141,-0.4332702489135814,18
23.3538923153859,-0.4621491647473648,18
23.36389398233039,-0.516545379878536,18
23.37389564927488,-0.5631567200514831,18
23.38389731621937,-0.5952729092700155,18
23.39389898316386,-0.6398360449379077,18
23.40390065010835,-0.6707432107175464,18
23.413902317052845,-0.704293186394977,18
23.423903983997334,-0.7314322648131711,18
23.433905650941824,-0.7585739346965421,18
23.443907317886314,-0.7776800085177541,18
23.453908984830807,-0.7833183708689011,18
23.463910651775297,-0.7814163933630229,18
23.473912318719787,-0.7808957281766112,18
23.483913985664277,-0.779298771594259,18
23.49391565260877,-0.7532195364577133,18
23.50391731955326,-0.7337851953169995,18
23.51391898649775,-0.7074231258060129,18
23.523920653442243,-0.6584979399625992,18
23.533922320386733,-0.6179615302807275,18
23.543923987331222,-0.5889821590815155,18
23.553925654275712,-0.5326588070034285,18
23.563927321220206,-0.470946776040112,18
23.573928988164695,-0.3956388716956114,18
23.583930655109185,-0.33452410758416806,18
23.593932322053675,-0.27627463846868977,18
23.60393398899817,-0.1899363412734356,18
23.613935655942658,-0.11313185808986155,18
23.623937322887148,-0.05070662246092375,18
23.63393898983164,0.02292884813083689,18
23.64394065677613,0.11405087906274992,18
23.65394232372062,0.16961719111408957,18
23.66394399066511,0.2645855162297692,18
23.673945657609604,0.31991987393418286,18
23.683947324554094,0.3830524215411959,18
23.693948991498583,0.45730035743997577,18
23.703950658443073,0.5332954574108235,18
23.713952325387567,0.5569796122315791,18
23.723953992332056,0.6050443562368648,18
23.733955659276546,0.6469513220982528,18
23.74395732622104,0.7009129055627628,18
23.75395899316553,0.7130284751594285,18
23.76396066011002,0.7448307049115059,18
23.77396232705451,0.7729231089924319,18
23.783963993999002,0.7802557595658265,18
23.793965660943492,0.7871539136552305,18
23.80396732788798,0.772159825461688,18
23.81396899483247,0.7633978783978123,18
23.823970661776965,0.7613960237973435,18
23.833972328721455,0.7151988267797041,18
23.843973995665944,0.7069550466262127,18
23.853975662610434,0.6880761467566838,18
23.863977329554928,0.6470868668528349,18
23.873978996499417,0.6133662964556422,18
23.883980663443907,0.5544307447145634,18
23.8939823303884,0.5156055790060825,18
23.90398399733289,0.4938203819246514,18
23.91398566427738,0.43850580134713557,18
23.92398733122187,0.40833195906832936,18
23.933988998166363,0.3498711569555404,18
23.943990665110853,0.32681310994896245,18
23.953992332055343,0.2787337745586916,18
23.963993998999833,0.24982708651465557,18
23.973995665944326,0.20338156907907845,18
23.983997332888816,0.18016750838031342,18
23.993998999833305,0.1330213239191713,18
24.0040006667778,0.12517501672581322,18
24.01400233372229,0.07490487592866815,18
24.02400400066678,0.05845515860383262,18
24.034005667611268,0.04106011628839039,18
24.04400733455576,0.04476134446260832,18
24.05400900150025,0.008226515166001057,18
24.06401066844474,-0.016540428714104105,18
24.07401233538923,0.005317911587372973,18
24.084014002333724,0.006104459429497264,18
24.094015669278214,0.007471061309575386,18
24.104017336222704,0.005966472613640247,18
24.114019003167197,0.0007530002689010058,18
24.124020670111687,-0.0026683610706006,18
24.134022337056177,-0.011312813409146309,18
24.144024004000666,0.004471648098147433,18
24.15402567094516,-0.004018538129599863,18
24.16402733788965,-0.0065383580777349844,18
24.17402900483414,-0.009071856664663189,18
24.18403067177863,-0.040927000634394556,18
24.194032338723122,-0.03962645216251002,18
24.204034005667612,-0.041970127468259295,18
24.214035672612102,-0.07368497859759368,18
24.224037339556595,-0.0769535712979375,18
24.234039006501085,-0.10628850930177615,18
24.244040673445575,-0.12279181395372142,18
24.254042340390065,-0.1663897628690148,18
24.264044007334558,-0.17903347218021212,18
24.274045674279048,-0.2010560825442961,18
24.284047341223538,-0.2537710461464296,18
24.294049008168027,-0.2783761419651774,18
24.30405067511252,-0.32228892626290734,18
24.31405234205701,-0.37045180115844234,18
24.3240540090015,-0.42620102556958495,18
24.334055675945994,-0.43568906966826376,18
24.344057342890483,-0.5052253197136319,18
24.354059009834973,-0.542151952194543,18
24.364060676779463,-0.5784157063126978,18
24.374062343723956,-0.6123643970962273,18
24.384064010668446,-0.653447179539984,18
24.394065677612936,-0.6951323615867333,18
24.404067344557426,-0.72577028611975,18
24.41406901150192,-0.7263287245512253,18
24.42407067844641,-0.7558637545639395,18
24.4340723453909,-0.7662046312813962,18
24.444074012335392,-0.7764821968628141,18
24.45407567927988,-0.7867298476738934,18
24.46407734622437,-0.768263851512692,18
24.47407901316886,-0.7720822076252373,18
24.484080680113355,-0.7432523642605168,18
24.494082347057844,-0.7314124331991674,18
24.504084014002334,-0.6937617736293387,18
24.514085680946824,-0.6462968256706259,18
24.524087347891317,-0.602086081272616,18
24.534089014835807,-0.5611763767867282,18
24.544090681780297,-0.48528375288419134,18
24.554092348724787,-0.43863383642486836,18
24.56409401566928,-0.382991839057781,18
24.57409568261377,-0.29993571727794216,18
24.58409734955826,-0.22855491009983261,18
24.594099016502753,-0.1394139926420224,18
24.604100683447243,-0.0843207992876058,18
24.614102350391732,-0.01833126839062696,18
24.624104017336222,0.07389688752650764,18
24.634105684280716,0.13541528936377714,18
24.644107351225205,0.22034941628533286,18
24.654109018169695,0.30682043094418604,18
24.664110685114185,0.36738689491520465,18
24.67411235205868,0.4409969849480835,18
24.684114019003168,0.4889625160140198,18
24.694115685947658,0.5464731049341942,18
24.70411735289215,0.6017365335178652,18
24.71411901983664,0.6250180826863619,18
24.72412068678113,0.6996632830762297,18
24.73412235372562,0.7145269809164213,18
24.744124020670114,0.72934630651902,18
24.754125687614604,0.7514692005011683,18
24.764127354559093,0.778625991035391,18
24.774129021503583,0.7713244699763231,18
24.784130688448077,0.7961800899663459,18
24.794132355392566,0.7663096968210977,18
24.804134022337056,0.7719170462535271,18
24.81413568928155,0.7512570790451509,18
24.82413735622604,0.7124782502129887,18
24.83413902317053,0.6963651908407313,18
24.84414069011502,0.6724860953653983,18
24.854142357059512,0.6298688951863485,18
24.864144024004002,0.5943104002318068,18
24.87414569094849,0.5599879181368235,18
24.88414735789298,0.4999405748980579,18
24.894149024837475,0.45032274236126657,18
24.904150691781965,0.4391980716815296,18
24.914152358726454,0.37257372769304165,18
24.924154025670948,0.3190682598637699,18
24.934155692615438,0.307168752299582,18
24.944157359559927,0.2381559554366439,18
24.954159026504417,0.22450990048334096,18
24.96416069344891,0.1784118038453415,18
24.9741623603934,0.15945518298222291,18
24.98416402733789,0.12498223663887621,18
24.99416569428238,0.08607870347680636,18
25.004167361226873,0.06252421076415524,18
25.014169028171363,0.04797714842863538,18
25.024170695115853,0.03280237641180007,18
25.034172362060346,0.020667981296852447,18
25.044174029004836,0.018880333918531444,18
25.054175695949326,-0.00412331806144086,18
25.064177362893815,0.0073010605468585696,18
25.07417902983831,0.006258254598508317,18
25.0841806967828,-0.002717700036144321,18
25.09418236372729,-0.007620081326226647,18
25.104184030671778,-0.01864712251891195,18
25.11418569761627,0.004270992181187349,18
25.12418736456076,0.018142696053478805,18
25.13418903150525,0.0027449635604716452,18
25.144190698449744,-0.0070556271887302294,18
25.154192365394234,-0.0008583473143031718,18
25.164194032338724,-0.0028745047498098635,18
25.174195699283214,-0.009105012638715378,18
25.184197366227707,-0.015309553232349747,18
25.194199033172197,-0.0568870775542216,18
25.204200700116687,-0.04389850645020607,18
25.214202367061176,-0.08608255429701502,18
25.22420403400567,-0.08828029743983028,18
25.23420570095016,-0.1368589724144379,18
25.24420736789465,-0.1686049735399042,18
25.25420903483914,-0.1818123343297614,18
25.264210701783632,-0.2307875439646127,18
25.274212368728122,-0.2908393993914709,18
25.284214035672612,-0.31155295447263914,18
25.294215702617105,-0.36538470075402446,18
25.304217369561595,-0.40104145234151445,18
25.314219036506085,-0.43141191663650175,18
25.324220703450575,-0.49248749602208824,18
25.334222370395068,-0.5331266993812128,18
25.344224037339558,-0.5737877034920725,18
25.354225704284048,-0.5936244186070071,18
25.364227371228537,-0.6457919454759222,18
25.37422903817303,-0.6891015612436746,18
25.38423070511752,-0.710490697509934,18
25.39423237206201,-0.7087676831767759,18
25.404234039006504,-0.7428809575151832,18
25.414235705950993,-0.7546628765266534,18
25.424237372895483,-0.7769113126733349,18
25.434239039839973,-0.7590554139563404,18
25.444240706784466,-0.7710032149825817,18
25.454242373728956,-0.7769544718479575,18
25.464244040673446,-0.7430240438592782,18
25.474245707617936,-0.7365957061724752,18
25.48424737456243,-0.6963939366985306,18
25.49424904150692,-0.6605599052262904,18
25.50425070845141,-0.6401916433428319,18
25.514252375395902,-0.5720277690393221,18
25.52425404234039,-0.5427611233343429,18
25.53425570928488,-0.45092405870481805,18
25.54425737622937,-0.393053787286956,18
25.554259043173865,-0.34734069211340834,18
25.564260710118354,-0.2493944498339018,18
25.574262377062844,-0.19697060586696633,18
25.584264044007334,-0.1125197932810536,18
25.594265710951827,-0.042284144428787286,18
25.604267377896317,0.03412603022157424,18
25.614269044840807,0.10261900532178964,18
25.6242707117853,0.19549025563321346,18
25.63427237872979,0.2767747819832827,18
25.64427404567428,0.34334124476515065,18
25.65427571261877,0.3867110994245122,18
25.664277379563263,0.4590425285151964,18
25.674279046507753,0.5282377224873294,18
25.684280713452242,0.5769204661266797,18
25.694282380396732,0.63192312563337,18
25.704284047341226,0.6550404046199167,18
25.714285714285715,0.6958789979319686,18
25.724287381230205,0.7296845115747105,18
25.7342890481747,0.7499010375393307,18
25.744290715119188,0.7760168653247761,18
25.754292382063678,0.7752925003080681,18
25.764294049008168,0.7720932558596055,18
25.77429571595266,0.7859514906704913,18
25.78429738289715,0.7629954939832773,18
25.79429904984164,0.748637959001624,18
25.80430071678613,0.726556085495855,18
25.814302383730624,0.7054283307031595,18
25.824304050675114,0.6790335957099615,18
25.834305717619603,0.6378303820040698,18
25.844307384564097,0.6042311913949807,18
25.854309051508586,0.5733798578913334,18
25.864310718453076,0.5143272346534942,18
25.874312385397566,0.4915952484301426,18
25.88431405234206,0.44281813614527654,18
25.89431571928655,0.399955894846434,18
25.90431738623104,0.35324441971654497,18
25.91431905317553,0.311429217867049,18
25.924320720120022,0.27261931772716586,18
25.934322387064512,0.23883499551480816,18
25.944324054009,0.1915445425584847,18
25.954325720953495,0.18912412916074925,18
25.964327387897985,0.1358755611143072,18
25.974329054842475,0.10862994761191817,18
25.984330721786964,0.07807072564831778,18
25.994332388731458,0.06311930048664387,18
26.004334055675947,0.040131538049886645,18
26.014335722620437,0.02621896802009154,18
26.024337389564927,0.032187769108561616,18
26.03433905650942,0.01267061014765804,18
26.04434072345391,-0.006192301592191925,18
26.0543423903984,-0.0016932427367686367,18
26.06434405734289,-0.004819037796867505,18
26.074345724287383,-0.01506879004107571,18
26.084347391231873,-0.01439004713374452,18
26.094349058176363,-0.0025679889572092097,18
26.104350725120856,0.0029083738844402868,18
26.114352392065346,-0.006721767743946144,18
26.124354059009836,0.002097287580673541,18
26.134355725954325,-0.006033188263717373,18
26.14435739289882,-0.00701231786233388,18
26.15435905984331,-0.023472505658752797,18
26.1643607267878,-0.04126283148330144,18
26.174362393732288,-0.032726889601052425,18
26.18436406067678,-0.04839828262011717,18
26.19436572762127,-0.0698637382569746,18
26.20436739456576,-0.10677331141597088,18
26.214369061510254,-0.11101300578891224,18
26.224370728454744,-0.1523769312804374,18
26.234372395399234,-0.1820660404580634,18
26.244374062343724,-0.22888476592130064,18
26.254375729288217,-0.24313780643523683,18
26.264377396232707,-0.2835250028518515,18
26.274379063177197,-0.3379640335776761,18
26.284380730121686,-0.3875599126229254,18
26.29438239706618,-0.41137372262354105,18
26.30438406401067,-0.44245383015667566,18
26.31438573095516,-0.5096135269107204,18
26.324387397899653,-0.5432989777494995,18
26.334389064844142,-0.5990422225532478,18
26.344390731788632,-0.6174994079927177,18
26.354392398733122,-0.6664004103540657,18
26.364394065677615,-0.6904712977826974,18
26.374395732622105,-0.7196168075297434,18
26.384397399566595,-0.7420633837909427,18
26.394399066511085,-0.7724371139778154,18
26.404400733455578,-0.771940847607302,18
26.414402400400068,-0.7681733270782877,18
26.424404067344557,-0.7682745323558076,18
26.43440573428905,-0.7760007680801668,18
26.44440740123354,-0.7436992214452643,18
26.45440906817803,-0.7324218239079284,18
26.46441073512252,-0.7249218684992783,18
26.474412402067014,-0.6723965639488744,18
26.484414069011503,-0.6331240795321387,18
26.494415735955993,-0.5915001057191308,18
26.504417402900483,-0.5428361857200255,18
26.514419069844976,-0.4802217915576129,18
26.524420736789466,-0.417380969031686,18
26.534422403733956,-0.3696865531591212,18
26.54442407067845,-0.2853381010939785,18
26.55442573762294,-0.23549026584944227,18
26.56442740456743,-0.13521382473376703,18
26.57442907151192,-0.08584568759074493,18
26.584430738456412,-0.004423074240037761,18
26.5944324054009,0.08635938830361319,18
26.60443407234539,0.15316351713512286,18
26.61443573928988,0.24269096379705707,18
26.624437406234374,0.2920786243395848,18
26.634439073178864,0.36701816405869725,18
26.644440740123354,0.43250271488973,18
26.654442407067847,0.4912368359403553,18
26.664444074012337,0.5500156150637798,18
26.674445740956827,0.58688176357805,18
26.684447407901317,0.6516889304971818,18
26.69444907484581,0.6982308809654746,18
26.7044507417903,0.7381090448141283,18
26.71445240873479,0.7436486871335747,18
26.72445407567928,0.7761899593318732,18
26.734455742623773,0.7819985864579888,18
26.744457409568263,0.7827592629564863,18
26.754459076512752,0.7812212177094668,18
26.764460743457242,0.7618275221524996,18
26.774462410401735,0.758113858160538,18
26.784464077346225,0.7463228882149331,18
26.794465744290715,0.7121527552773262,18
26.80446741123521,0.6835865967273552,18
26.814469078179698,0.6370108648030745,18
26.824470745124188,0.611319346241306,18
26.834472412068678,0.6034697867383242,18
26.84447407901317,0.5532580132453501,18
26.85447574595766,0.49795314721510825,18
26.86447741290215,0.46559376853531603,18
26.87447907984664,0.40517115681357785,18
26.884480746791134,0.3628446234791361,18
26.894482413735624,0.33439083889161947,18
26.904484080680113,0.28295093208277267,18
26.914485747624607,0.2638114254834833,18
26.924487414569096,0.20107674037231704,18
26.934489081513586,0.18271932359544651,18
26.944490748458076,0.1510025040064829,18
26.95449241540257,0.12816661038470412,18
26.96449408234706,0.11156358500656463,18
26.97449574929155,0.06794267747875234,18
26.98449741623604,0.04830105537235133,18
26.994499083180532,0.05634739172316387,18
27.004500750125022,0.023598006626913047,18
27.01450241706951,0.0064171588932374676,18
27.024504084014005,0.01637749437081758,18
27.034505750958495,0.0004232033342683218,18
27.044507417902985,0.00788813199869206,18
27.054509084847474,-0.0008557198251451876,18
27.064510751791968,-0.0013238558183003165,18
27.074512418736457,0.009618290378850373,18
27.084514085680947,0.017258850894588267,18
27.094515752625437,-0.016340586118724097,18
27.10451741956993,-0.00032951192194099165,18
27.11451908651442,-0.002447525732433979,18
27.12452075345891,-0.00502032300050735,18
27.134522420403403,-0.026914792788563083,18
27.144524087347893,-0.02796078678303629,18
27.154525754292383,-0.05193033186114973,18
27.164527421236873,-0.050203465736832834,18
27.174529088181366,-0.061067201650382145,18
27.184530755125856,-0.0945763475165753,18
27.194532422070345,-0.09345645637302857,18
27.204534089014835,-0.1341921668664711,18
27.21453575595933,-0.16557055286729114,18
27.22453742290382,-0.21289807607453792,18
27.234539089848308,-0.22466947535528836,18
27.2445407567928,-0.28759017640999956,18
27.25454242373729,-0.32790501741301714,18
27.26454409068178,-0.3643408871509967,18
27.27454575762627,-0.4109977840691182,18
27.284547424570764,-0.45016322359793703,18
27.294549091515254,-0.4858601436644434,18
27.304550758459744,-0.5142704476383548,18
27.314552425404234,-0.5669609024200959,18
27.324554092348727,-0.6171767195780443,18
27.334555759293217,-0.6394026852647001,18
27.344557426237706,-0.683538979700113,18
27.3545590931822,-0.7085759879740715,18
27.36456076012669,-0.7397846006109675,18
27.37456242707118,-0.760771382834499,18
27.38456409401567,-0.7719588836927268,18
27.394565760960162,-0.7748950774747841,18
27.404567427904652,-0.777118508232404,18
27.414569094849142,-0.7920702559390177,18
27.424570761793632,-0.7576939661433869,18
27.434572428738125,-0.742866667511966,18
27.444574095682615,-0.7361877384341993,18
27.454575762627105,-0.6964318313864967,18
27.464577429571595,-0.6728908494363713,18
27.474579096516088,-0.6075648487001563,18
27.484580763460578,-0.5676978551484985,18
27.494582430405067,-0.5140657253547787,18
27.50458409734956,-0.46097910324502145,18
27.51458576429405,-0.398834356492243,18
27.52458743123854,-0.3465889260830751,18
27.53458909818303,-0.24903319385106884,18
27.544590765127523,-0.1799533671939362,18
27.554592432072013,-0.09510633555712633,18
27.564594099016503,-0.023933371021342353,18
27.574595765960993,0.041036492683289114,18
27.584597432905486,0.1190600101620377,18
27.594599099849976,0.19213665557313578,18
27.604600766794466,0.26915656466442794,18
27.61460243373896,0.32990487307223737,18
27.62460410068345,0.40458980064785033,18
27.63460576762794,0.466571432973232,18
27.64460743457243,0.5264986029747282,18
27.65460910151692,0.5557938251715612,18
27.66461076846141,0.6136767494190694,18
27.6746124354059,0.6653329317233712,18
27.68461410235039,0.7074209579654245,18
27.694615769294884,0.7445268174652292,18
27.704617436239374,0.7457132837598237,18
27.714619103183864,0.7609459316669797,18
27.724620770128357,0.791648220336626,18
27.734622437072847,0.7875511978754745,18
27.744624104017337,0.7901425387243253,18
27.754625770961827,0.7493937043200009,18
27.76462743790632,0.7647413236119331,18
27.77462910485081,0.7372747377571579,18
27.7846307717953,0.7092108382894781,18
27.79463243873979,0.6643091040298581,18
27.804634105684283,0.6384058398761454,18
27.814635772628773,0.6049998630432184,18
27.824637439573262,0.5650022589248663,18
27.834639106517756,0.5374139199710741,18
27.844640773462245,0.4710374612528588,18
27.854642440406735,0.42486675163793636,18
27.864644107351225,0.39940182781584976,18
27.87464577429572,0.3401337428969644,18
27.884647441240208,0.30131274438914435,18
27.894649108184698,0.24659097372594094,18
27.904650775129188,0.23556854928893736,18
27.91465244207368,0.20599942945175254,18
27.92465410901817,0.1532722569244052,18
27.93465577596266,0.13317229703189312,18
27.944657442907154,0.10244628524518624,18
27.954659109851644,0.08827007754800013,18
27.964660776796133,0.07333358026074209,18
27.974662443740623,0.03321704262911153,18
27.984664110685117,0.02418846764096421,18
27.994665777629606,0.02137184878119144,18
28.004667444574096,0.02856299272117116,18
28.014669111518586,0.01726991011061583,18
28.02467077846308,-0.008421634594848288,18
28.03467244540757,-0.00254716238099717,18
28.04467411235206,0.007373392966990887,18
28.054675779296552,0.014391226637778991,18
28.064677446241042,0.0051560838539266,18
28.07467911318553,0.006401974738588523,18
28.08468078013002,-0.005745289168524972,18
28.094682447074515,-0.00874876308685952,18
28.104684114019005,-0.01652770932706092,18
28.114685780963494,-0.003510585237315846,18
28.124687447907984,-0.02233972860798335,18
28.134689114852478,-0.0047608309734952226,18
28.144690781796967,-0.034162559037596914,18
28.154692448741457,-0.035092855069551995,18
28.164694115685947,-0.0861430648137026,18
28.17469578263044,-0.10358303178957523,18
