time,ppg_signal,subject_id
0.0,0.00032218383652521447,2
0.010001666944490749,0.07227414383878186,2
0.020003333888981498,0.16194613325557097,2
0.030005000833472247,0.2311690454256863,2
0.040006667777962995,0.2876650120219799,2
0.050008334722453744,0.35739794460381424,2
0.06001000166694449,0.4337007754951053,2
0.07001166861143523,0.5077347087389663,2
0.08001333555592599,0.5667116667551608,2
0.09001500250041675,0.6030026963434346,2
0.10001666944490749,0.6303948050991289,2
0.11001833638939823,0.6665949315274381,2
0.12002000333388899,0.721870171930262,2
0.13002167027837974,0.7328949801711112,2
0.14002333722287047,0.7647537213772709,2
0.15002500416736123,0.7933281192031235,2
0.16002667111185198,0.7875105213206859,2
0.17002833805634274,0.7760861966391752,2
0.1800300050008335,0.7672353654694911,2
0.19003167194532422,0.748422235872478,2
0.20003333888981498,0.7378655898751735,2
0.21003500583430573,0.703048167372929,2
0.22003667277879646,0.687185555126171,2
0.23003833972328722,0.6598107195314207,2
0.24004000666777797,0.6243576209146823,2
0.2500416736122687,0.5964435438632795,2
0.2600433405567595,0.5465141236551748,2
0.2700450075012502,0.5042841481246488,2
0.28004667444574094,0.45281765149307074,2
0.2900483413902317,0.41681671981796053,2
0.30005000833472245,0.38263045808668494,2
0.31005167527921323,0.3294544877782689,2
0.32005334222370396,0.2945638367171689,2
0.3300550091681947,0.2565790740705181,2
0.3400566761126855,0.21809812731533415,2
0.3500583430571762,0.19016862314494415,2
0.360060010001667,0.1517413687126499,2
0.3700616769461577,0.13325087563406884,2
0.38006334389064844,0.09388591181531836,2
0.3900650108351392,0.07673528124851545,2
0.40006667777962995,0.06177815434373038,2
0.4100683447241207,0.05424301278100278,2
0.42007001166861146,0.03230761848390382,2
0.4300716786131022,0.018237814311704927,2
0.4400733455575929,0.01912729892556292,2
0.4500750125020837,0.00034192189691790217,2
0.46007667944657443,0.002203897511202527,2
0.4700783463910652,0.0038040129476964502,2
0.48008001333555594,-0.01708171861831544,2
0.49008168028004667,-0.011597477433367009,2
0.5000833472245374,0.006877231549675896,2
0.5100850141690282,-0.0019696223955324044,2
0.520086681113519,-0.003125051783581834,2
0.5300883480580096,-0.010025065049905128,2
0.5400900150025004,-0.02985508273039854,2
0.5500916819469912,-0.02127592568698104,2
0.5600933488914819,-0.02062854425228979,2
0.5700950158359727,-0.0203487850338797,2
0.5800966827804634,-0.06653040798775486,2
0.5900983497249542,-0.07404968378692336,2
0.6001000166694449,-0.08783286164106638,2
0.6101016836139357,-0.12069601901463903,2
0.6201033505584265,-0.1388973939145609,2
0.6301050175029171,-0.1556921079597388,2
0.6401066844474079,-0.19440065292910474,2
0.6501083513918987,-0.24037017029531416,2
0.6601100183363894,-0.2832436436998896,2
0.6701116852808802,-0.30347259477945293,2
0.680113352225371,-0.35120621519190887,2
0.6901150191698616,-0.3835811085437969,2
0.7001166861143524,-0.4391274524697504,2
0.7101183530588432,-0.4723347414883987,2
0.720120020003334,-0.5131292697705359,2
0.7301216869478246,-0.5612450208993192,2
0.7401233538923154,-0.6072245615866203,2
0.7501250208368062,-0.6227000719121527,2
0.7601266877812969,-0.67460418305327,2
0.7701283547257877,-0.6935150944712913,2
0.7801300216702785,-0.717920803655691,2
0.7901316886147691,-0.7332017277104697,2
0.8001333555592599,-0.7630768671108884,2
0.8101350225037507,-0.7636747660059086,2
0.8201366894482414,-0.7862142541514315,2
0.8301383563927321,-0.7773549724262676,2
0.8401400233372229,-0.748210180087999,2
0.8501416902817136,-0.7602126723625736,2
0.8601433572262044,-0.7235954239194834,2
0.8701450241706952,-0.7085386477356312,2
0.8801466911151858,-0.6594775904788164,2
0.8901483580596766,-0.6283861733502131,2
0.9001500250041674,-0.5813944434641749,2
0.9101516919486582,-0.5084953141550087,2
0.9201533588931489,-0.463730161833677,2
0.9301550258376396,-0.416467928636388,2
0.9401566927821304,-0.3438260709408832,2
0.9501583597266211,-0.24599531823679147,2
0.9601600266711119,-0.17828770084985868,2
0.9701616936156027,-0.12012696548825084,2
0.9801633605600933,-0.03513649770854371,2
0.9901650275045841,0.042135873009263594,2
1.0001666944490748,0.1442561285837094,2
1.0101683613935657,0.17990561990687878,2
1.0201700283380564,0.2612663254436124,2
1.030171695282547,0.31918629783054175,2
1.040173362227038,0.4136739565655705,2
1.0501750291715286,0.4575638263807505,2
1.0601766961160193,0.520121571874518,2
1.0701783630605102,0.5713079674616024,2
1.0801800300050008,0.6145456545075031,2
1.0901816969494915,0.6658836636462575,2
1.1001833638939824,0.7005943042451639,2
1.110185030838473,0.7326661967562949,2
1.1201866977829638,0.7312882819796072,2
1.1301883647274547,0.7742747735384804,2
1.1401900316719453,0.7774086987949967,2
1.1501916986164362,0.7725907688861234,2
1.160193365560927,0.7573996882042602,2
1.1701950325054176,0.7838504464963227,2
1.1801966994499085,0.759340889764077,2
1.1901983663943991,0.7173798506559741,2
1.2002000333388898,0.7061843178682388,2
1.2102017002833807,0.6854719923641874,2
1.2202033672278714,0.6277441022256511,2
1.230205034172362,0.5988788033944249,2
1.240206701116853,0.5666884450518603,2
1.2502083680613436,0.5265475875135431,2
1.2602100350058343,0.4634295576610686,2
1.2702117019503252,0.428791621592431,2
1.2802133688948159,0.3927480953584791,2
1.2902150358393065,0.35214408450420703,2
1.3002167027837974,0.2983778006512435,2
1.310218369728288,0.2712207462382251,2
1.3202200366727788,0.24634637445976867,2
1.3302217036172697,0.21844395992700258,2
1.3402233705617603,0.17317286337765422,2
1.350225037506251,0.14011828925390368,2
1.360226704450742,0.12884957869857858,2
1.3702283713952326,0.09894050233757185,2
1.3802300383397232,0.07259223433557761,2
1.3902317052842141,0.037727851769309366,2
1.4002333722287048,0.042801504021948426,2
1.4102350391731955,0.01979043601680027,2
1.4202367061176864,-0.0017236503190657532,2
1.430238373062177,0.010300336126075319,2
1.440240040006668,-0.000786319966245389,2
1.4502417069511586,-0.0011820764571742518,2
1.4602433738956493,-0.0033151928705872948,2
1.4702450408401402,0.000686222197767303,2
1.4802467077846309,1.5260511594503248e-05,2
1.4902483747291215,-0.007865691444367662,2
1.5002500416736124,-0.009680271907558647,2
1.510251708618103,-0.011368187947378405,2
1.5202533755625938,-0.016794551598355512,2
1.5302550425070847,-0.014934169049649434,2
1.5402567094515753,-0.007140658677356431,2
1.550258376396066,-0.008270141188256662,2
1.560260043340557,-0.054646429475907005,2
1.5702617102850476,-0.0392103512532327,2
1.5802633772295382,-0.07514702411828014,2
1.5902650441740291,-0.09283477126176873,2
1.6002667111185198,-0.11939200192441808,2
1.6102683780630105,-0.1555222907980454,2
1.6202700450075014,-0.19156911372918717,2
1.630271711951992,-0.21599359821853256,2
1.6402733788964827,-0.24803556705759058,2
1.6502750458409736,-0.2871610812244881,2
1.6602767127854643,-0.3303877792951063,2
1.670278379729955,-0.37361963173138457,2
1.6802800466744459,-0.4092284826744154,2
1.6902817136189365,-0.46625026620230847,2
1.7002833805634272,-0.49423014333565446,2
1.710285047507918,-0.5418113263220355,2
1.7202867144524088,-0.5857067988250366,2
1.7302883813968994,-0.6169985658554563,2
1.7402900483413903,-0.6657552935475363,2
1.750291715285881,-0.6931594908801084,2
1.7602933822303717,-0.7189301748460922,2
1.7702950491748626,-0.737077909819972,2
1.7802967161193533,-0.7521448131943956,2
1.7902983830638441,-0.7764418275180461,2
1.8003000500083348,-0.7902923116533459,2
1.8103017169528255,-0.7793874833673671,2
1.8203033838973164,-0.751465722744123,2
1.830305050841807,-0.7597848036113697,2
1.8403067177862977,-0.7416603364782693,2
1.8503083847307886,-0.7028590176242397,2
1.8603100516752793,-0.6690965215384502,2
1.87031171861977,-0.6437923893053611,2
1.8803133855642609,-0.5936747648365547,2
1.8903150525087515,-0.5681123456439618,2
1.9003167194532422,-0.4791912314786232,2
1.910318386397733,-0.44363879284259766,2
1.9203200533422238,-0.38260787583570527,2
1.9303217202867144,-0.29888383725459966,2
1.9403233872312053,-0.23833634495035846,2
1.950325054175696,-0.15294926872374567,2
1.9603267211201867,-0.07732931069727284,2
1.9703283880646776,0.0005146510147929172,2
1.9803300550091683,0.08949532374955259,2
1.990331721953659,0.13838854631310324,2
2.0003333888981496,0.24342186953773007,2
2.0103350558426407,0.2952742573314093,2
2.0203367227871314,0.37709290678316987,2
2.030338389731622,0.43216648409647657,2
2.0403400566761127,0.48783473482809336,2
2.0503417236206034,0.5650200360878276,2
2.060343390565094,0.5926194129368071,2
2.070345057509585,0.6494289126281155,2
2.080346724454076,0.6875729339453681,2
2.0903483913985665,0.725910543592416,2
2.100350058343057,0.7469126816469891,2
2.110351725287548,0.7687540981967805,2
2.1203533922320386,0.7798353409387238,2
2.1303550591765297,0.7768076033380168,2
2.1403567261210203,0.7660299705527783,2
2.150358393065511,0.7717772181742274,2
2.1603600600100017,0.771031894250437,2
2.1703617269544924,0.7397847152992484,2
2.180363393898983,0.7165035710736831,2
2.190365060843474,0.705476110582086,2
2.200366727787965,0.6821181302296856,2
2.2103683947324555,0.6204575176278716,2
2.220370061676946,0.5817261121508599,2
2.230371728621437,0.5620674574960292,2
2.2403733955659275,0.5038935066362262,2
2.2503750625104186,0.4668852983783158,2
2.2603767294549093,0.40968783676637344,2
2.2703783963994,0.3774247770553375,2
2.2803800633438907,0.3219008429901427,2
2.2903817302883813,0.30088033003570946,2
2.3003833972328724,0.2638584961297966,2
2.310385064177363,0.20674511132593942,2
2.320386731121854,0.18517600263639816,2
2.3303883980663445,0.1667903352463259,2
2.340390065010835,0.12465995213380845,2
2.350391731955326,0.10560478635858436,2
2.360393398899817,0.09162572154271331,2
2.3703950658443076,0.04643564545301182,2
2.3803967327887983,0.02967044637878718,2
2.390398399733289,0.035394493811077364,2
2.4004000666777796,0.028471795718722326,2
2.4104017336222703,-0.0032540967214292286,2
2.4204034005667614,0.02511556548388666,2
2.430405067511252,0.005248919723269638,2
2.4404067344557427,0.0012783525299780497,2
2.4504084014002334,-0.007750327560133902,2
2.460410068344724,-0.0035178908191567373,2
2.4704117352892148,-0.01768113862998761,2
2.480413402233706,-0.0101749658521583,2
2.4904150691781965,0.013972880474931046,2
2.5004167361226872,0.0019060468570220312,2
2.510418403067178,-0.010475431851148107,2
2.5204200700116686,-0.011492528574805316,2
2.5304217369561592,-0.03716562722910399,2
2.5404234039006504,-0.031360612158412654,2
2.550425070845141,-0.036745818707565,2
2.5604267377896317,-0.052663028440590266,2
2.5704284047341224,-0.07687699809861753,2
2.580430071678613,-0.10654579778324538,2
2.590431738623104,-0.12177194264758923,2
2.600433405567595,-0.1576849164758711,2
2.6104350725120855,-0.18700112263646262,2
2.620436739456576,-0.23554951406370458,2
2.630438406401067,-0.2773308347647367,2
2.6404400733455575,-0.3203245963385752,2
2.6504417402900486,-0.35138492316841685,2
2.6604434072345393,-0.3916807844627143,2
2.67044507417903,-0.43721144600977724,2
2.6804467411235207,-0.49648104503376456,2
2.6904484080680113,-0.538466838849359,2
2.700450075012502,-0.5737927088885472,2
2.710451741956993,-0.5949052675496136,2
2.720453408901484,-0.6399400085663792,2
2.7304550758459745,-0.6844898765615876,2
2.740456742790465,-0.699864666797769,2
2.750458409734956,-0.7256305294367515,2
2.7604600766794465,-0.7425397694921002,2
2.7704617436239376,-0.753012682693592,2
2.7804634105684283,-0.7720571037611969,2
2.790465077512919,-0.7808815499080195,2
2.8004667444574096,-0.7607948522538649,2
2.8104684114019003,-0.7450395866327462,2
2.820470078346391,-0.7501406871901234,2
2.830471745290882,-0.7462629940902694,2
2.8404734122353728,-0.7021321723407772,2
2.8504750791798634,-0.6667546313947276,2
2.860476746124354,-0.6157059499050137,2
2.8704784130688448,-0.5623124935558329,2
2.880480080013336,-0.4993948912838155,2
2.8904817469578266,-0.46439022074425457,2
2.9004834139023172,-0.40753099407104687,2
2.910485080846808,-0.3158299000957424,2
2.9204867477912986,-0.26861887447992155,2
2.9304884147357892,-0.1951333174265276,2
2.9404900816802804,-0.12026382580196321,2
2.950491748624771,-0.031538391045046126,2
2.9604934155692617,0.029823156084615735,2
2.9704950825137524,0.12155577196842186,2
2.980496749458243,0.2002206690716002,2
2.9904984164027337,0.25849888290427264,2
3.000500083347225,0.32879413726303275,2
3.0105017502917155,0.39212204024663144,2
3.020503417236206,0.4819595896852277,2
3.030505084180697,0.5111019044219126,2
3.0405067511251875,0.5852076971517401,2
3.050508418069678,0.6164032631214231,2
3.0605100850141693,0.6570600111805468,2
3.07051175195866,0.7045471678094265,2
3.0805134189031507,0.7254998505343734,2
3.0905150858476413,0.7542083027875046,2
3.100516752792132,0.7602555214110609,2
3.1105184197366227,0.7887956595621526,2
3.120520086681114,0.7949080991840035,2
3.1305217536256045,0.780870326736755,2
3.140523420570095,0.7662033327730752,2
3.150525087514586,0.7626667361711981,2
3.1605267544590765,0.7088029587121385,2
3.170528421403567,0.6847525856407625,2
3.1805300883480583,0.6697676947322782,2
3.190531755292549,0.6306923281027724,2
3.2005334222370396,0.5810012968094078,2
3.2105350891815303,0.5465536504318261,2
3.220536756126021,0.5166077953271172,2
3.230538423070512,0.4803412344946797,2
3.2405400900150028,0.4430256852326217,2
3.2505417569594934,0.4008732284999949,2
3.260543423903984,0.36223350053292536,2
3.270545090848475,0.33303142408910746,2
3.2805467577929655,0.26422557384633377,2
3.2905484247374566,0.23297626278330388,2
3.3005500916819472,0.18969022091089413,2
3.310551758626438,0.155750063619704,2
3.3205534255709286,0.1367022010735205,2
3.3305550925154193,0.1124318535514515,2
3.34055675945991,0.09959031421869814,2
3.350558426404401,0.07916371479090889,2
3.3605600933488917,0.041671597287404306,2
3.3705617602933824,0.029516276761789487,2
3.380563427237873,0.03005015684963251,2
3.3905650941823637,0.005712709048070657,2
3.4005667611268544,-0.0023089507626192444,2
3.4105684280713455,0.013747400453530893,2
3.420570095015836,0.0014798789932512469,2
3.430571761960327,-0.006408926901740281,2
3.4405734289048175,-0.016552485169513218,2
3.450575095849308,-0.012443136139054577,2
3.460576762793799,0.011959762037832857,2
3.47057842973829,-0.02246426226258777,2
3.4805800966827807,-0.012131969430594657,2
3.4905817636272714,-0.001620197086822284,2
3.500583430571762,-0.002740099937730509,2
3.5105850975162527,-0.008032718976001312,2
3.5205867644607434,-0.029299780425876786,2
3.5305884314052345,-0.054543209336405905,2
3.540590098349725,-0.05769127231237607,2
3.550591765294216,-0.0751476883354845,2
3.5605934322387065,-0.07721459106613174,2
3.570595099183197,-0.11191220453178402,2
3.5805967661276883,-0.1611448956111382,2
3.590598433072179,-0.17649406087452169,2
3.6006001000166696,-0.22971406745161732,2
3.6106017669611603,-0.2508829389992601,2
3.620603433905651,-0.2951769990767654,2
3.6306051008501417,-0.3347027653460119,2
3.6406067677946328,-0.36680487513835225,2
3.6506084347391234,-0.40458022734059157,2
3.660610101683614,-0.46589149614743347,2
3.670611768628105,-0.49805587208266766,2
3.6806134355725955,-0.5595745959307592,2
3.690615102517086,-0.600760648859147,2
3.7006167694615772,-0.6311241692244778,2
3.710618436406068,-0.645962986646649,2
3.7206201033505586,-0.677933620390748,2
3.7306217702950493,-0.7092813966534989,2
3.74062343723954,-0.7325495551350607,2
3.7506251041840306,-0.7421705076360019,2
3.7606267711285217,-0.7718987253069629,2
3.7706284380730124,-0.7877963526692096,2
3.780630105017503,-0.7922427110091306,2
3.7906317719619937,-0.7727930663683563,2
3.8006334389064844,-0.7682407491276437,2
3.810635105850975,-0.7587077308536372,2
3.820636772795466,-0.7277233083772168,2
3.830638439739957,-0.693367058434344,2
3.8406401066844476,-0.6560363002474403,2
3.8506417736289382,-0.6204794850759271,2
3.860643440573429,-0.5443833954465213,2
3.87064510751792,-0.49935360181155725,2
3.8806467744624107,-0.43114710742329715,2
3.8906484414069014,-0.36918797816219073,2
3.900650108351392,-0.2753459418564184,2
3.9106517752958827,-0.20314343093562992,2
3.9206534422403734,-0.16536653884993055,2
3.9306551091848645,-0.0898577056894567,2
3.940656776129355,-0.01601357114186917,2
3.950658443073846,0.065351620684939,2
3.9606601100183365,0.15827680534181218,2
3.970661776962827,0.23346959447132737,2
3.980663443907318,0.29417024253958346,2
3.990665110851809,0.36538026209357033,2
4.000666777796299,0.41952362764774365,2
4.01066844474079,0.4833333748539915,2
4.020670111685281,0.5404215677792453,2
4.030671778629772,0.5939421153414981,2
4.040673445574263,0.6393259920824842,2
4.0506751125187535,0.6662028894147066,2
4.060676779463244,0.7139793181886228,2
4.070678446407735,0.7444843228808109,2
4.0806801133522255,0.7566016670726844,2
4.090681780296716,0.7535585295231835,2
4.100683447241207,0.7868812568513314,2
4.1106851141856975,0.7786351093796713,2
4.120686781130188,0.7624186107874518,2
4.130688448074679,0.7596639499025405,2
4.14069011501917,0.738081178186908,2
4.150691781963661,0.7207975816376148,2
4.160693448908152,0.6932521936245923,2
4.170695115852642,0.6664139803923202,2
4.180696782797133,0.6122985258627488,2
4.190698449741624,0.5903560704455557,2
4.200700116686114,0.5413379432190923,2
4.210701783630605,0.5052377475007211,2
4.220703450575096,0.4644568360886994,2
4.2307051175195864,0.4299250269883429,2
4.240706784464077,0.3925951372103448,2
4.250708451408569,0.32656522872211696,2
4.260710118353059,0.2976676225495796,2
4.27071178529755,0.2435682294793505,2
4.280713452242041,0.21577064586910868,2
4.290715119186531,0.19540354738895468,2
4.300716786131022,0.16272495794794378,2
4.310718453075513,0.10302506765077282,2
4.320720120020003,0.09442165436781093,2
4.330721786964494,0.07013944281663395,2
4.340723453908985,0.06002198325511295,2
4.350725120853475,0.02429173876911689,2
4.360726787797966,0.006159010699367216,2
4.370728454742458,0.015963983687703073,2
4.380730121686948,0.0030779406798962464,2
4.390731788631439,0.006210965768282688,2
4.40073345557593,0.012185161031290394,2
4.41073512252042,0.0077901206709090585,2
4.420736789464911,-0.005741259072092697,2
4.430738456409402,0.003307626447702349,2
4.440740123353892,0.01656820798627705,2
4.450741790298383,-0.006936505518593369,2
4.460743457242874,0.027253295428681382,2
4.470745124187364,-0.007264291715202003,2
4.480746791131855,-0.012853413639882929,2
4.490748458076347,-0.013204622408409097,2
4.500750125020837,-0.018187710735694564,2
4.510751791965328,-0.03528934131243824,2
4.520753458909819,-0.06236132865551231,2
4.530755125854309,-0.06122330277069178,2
4.5407567927988,-0.08073859487899841,2
4.550758459743291,-0.10661072270068951,2
4.560760126687781,-0.14131666682045707,2
4.570761793632272,-0.1655781023849447,2
4.580763460576763,-0.1982301474330893,2
4.590765127521253,-0.23825637904204927,2
4.600766794465745,-0.26306019734200153,2
4.6107684614102356,-0.31993545050913696,2
4.620770128354726,-0.3536982668931891,2
4.630771795299217,-0.3689162891419644,2
4.640773462243708,-0.4379241418524054,2
4.650775129188198,-0.47803014169817076,2
4.660776796132689,-0.5236201790440691,2
4.67077846307718,-0.5625834337454398,2
4.68078013002167,-0.6162187028819971,2
4.690781796966161,-0.6313600780568829,2
4.700783463910652,-0.6619760885414878,2
4.710785130855142,-0.7219331983440347,2
4.720786797799634,-0.7317864292891075,2
4.7307884647441245,-0.7345237604054853,2
4.740790131688615,-0.7709264545765361,2
4.750791798633106,-0.7677163990131443,2
4.7607934655775965,-0.7794325891436849,2
4.770795132522087,-0.7801400057511205,2
4.780796799466578,-0.7674696292929225,2
4.7907984664110685,-0.7438014331863265,2
4.800800133355559,-0.7279385592231021,2
4.81080180030005,-0.708609822638945,2
4.820803467244541,-0.6666198733503719,2
4.830805134189032,-0.6189877616276577,2
4.840806801133523,-0.5635618834371557,2
4.8508084680780135,-0.5251034497767164,2
4.860810135022504,-0.47912033433319196,2
4.870811801966995,-0.40386973871518833,2
4.8808134689114855,-0.3514525857944403,2
4.890815135855976,-0.25986380657623126,2
4.900816802800467,-0.2140451124561907,2
4.9108184697449575,-0.1154101761084342,2
4.920820136689448,-0.0364248477514863,2
4.930821803633939,0.03920979456294504,2
4.9408234705784295,0.12368410751579481,2
4.950825137522921,0.17318764138569098,2
4.960826804467412,0.26840387821067735,2
4.970828471411902,0.3360412748503288,2
4.980830138356393,0.38625574105766985,2
4.990831805300884,0.4588031692628624,2
5.0008334722453744,0.5286099315754801,2
5.010835139189865,0.5676496878174224,2
5.020836806134356,0.6141037159155296,2
5.0308384730788465,0.6642012160575675,2
5.040840140023337,0.6948117275919696,2
5.050841806967828,0.7190419911486164,2
5.0608434739123185,0.7494292936413933,2
5.07084514085681,0.7771204114498877,2
5.080846807801301,0.7707777964374699,2
5.090848474745791,0.7701388526188676,2
5.100850141690282,0.7669398672793287,2
5.110851808634773,0.7681048163445496,2
5.120853475579263,0.7355442666961405,2
5.130855142523754,0.7298775322613603,2
5.140856809468245,0.7044461670054386,2
5.150858476412735,0.6741351086239342,2
5.160860143357226,0.6398706504102706,2
5.170861810301717,0.6102719303513018,2
5.180863477246208,0.5764634098771562,2
5.190865144190699,0.5267085514999125,2
5.20086681113519,0.5072638625716861,2
5.21086847807968,0.46507912274830876,2
5.220870145024171,0.3994008064586052,2
5.230871811968662,0.36613159748107055,2
5.240873478913152,0.31957771822083697,2
5.250875145857643,0.2636686198171693,2
5.260876812802134,0.20567435461958317,2
5.270878479746624,0.21038087235439026,2
5.280880146691115,0.168028141979299,2
5.290881813635606,0.1520057108397104,2
5.300883480580097,0.11460389664018324,2
5.310885147524588,0.08518261066284316,2
5.320886814469079,0.05943571460445355,2
5.330888481413569,0.038408788027308016,2
5.34089014835806,0.02367478215949858,2
5.350891815302551,0.031464345937053696,2
5.360893482247041,0.011327107423721481,2
5.370895149191532,0.000889943039822743,2
5.380896816136023,0.012830831690465448,2
5.390898483080513,0.014895539042287704,2
5.400900150025004,-0.0022976702679444894,2
5.410901816969495,0.006459709309891052,2
5.420903483913986,-0.0002487332786538498,2
5.430905150858477,0.006691604940136197,2
5.440906817802968,-0.012721635631055824,2
5.450908484747458,-0.015125954801447595,2
5.460910151691949,0.0016078676903422866,2
5.47091181863644,0.006091255672567662,2
5.48091348558093,-0.026127801932643205,2
5.490915152525421,-0.01683826328880096,2
5.500916819469912,-0.04461612171396063,2
5.510918486414402,-0.05627759492086065,2
5.520920153358893,-0.04592382704011794,2
5.5309218203033845,-0.10763721095043483,2
5.540923487247875,-0.1279083887794899,2
5.550925154192366,-0.13413262772015835,2
5.5609268211368565,-0.16482838598336674,2
5.570928488081347,-0.2179421540334208,2
5.580930155025838,-0.24464526386936059,2
5.590931821970329,-0.3030738926451273,2
5.600933488914819,-0.32411866988215443,2
5.61093515585931,-0.37571401035259716,2
5.620936822803801,-0.41050061303058144,2
5.630938489748291,-0.458022687469369,2
5.640940156692782,-0.5012686359815848,2
5.6509418236372735,-0.5368405224099014,2
5.660943490581764,-0.5877033438659532,2
5.670945157526255,-0.6313290737053776,2
5.6809468244707455,-0.646330370373463,2
5.690948491415236,-0.6794521832832014,2
5.700950158359727,-0.7205252922448049,2
5.7109518253042175,-0.7533354237695921,2
5.720953492248708,-0.7596098968778602,2
5.730955159193199,-0.7793572460627494,2
5.7409568261376895,-0.7821633127291919,2
5.75095849308218,-0.7956070233106746,2
5.760960160026672,-0.7827242631191422,2
5.7709618269711624,-0.7575422848822803,2
5.780963493915653,-0.7529039126935856,2
5.790965160860144,-0.6995364777696798,2
5.8009668278046345,-0.6831524236934297,2
5.810968494749125,-0.6630182754565084,2
5.820970161693616,-0.5891312854893204,2
5.8309718286381065,-0.5548594550580038,2
5.840973495582597,-0.48546944066967374,2
5.850975162527088,-0.4325545675773956,2
5.8609768294715785,-0.3672715189083209,2
5.870978496416069,-0.29017015609130775,2
5.880980163360561,-0.23099068611334733,2
5.890981830305051,-0.15569373480070697,2
5.900983497249542,-0.08434508335742899,2
5.910985164194033,-0.01775298005080208,2
5.920986831138523,0.06245693753963967,2
5.930988498083014,0.1526665537415665,2
5.940990165027505,0.24105273157139287,2
5.950991831971995,0.30741920078811846,2
5.960993498916486,0.34896240219903546,2
5.970995165860977,0.43301763480786937,2
5.9809968328054675,0.4830365121903954,2
5.990998499749958,0.5267809224365364,2
6.00100016669445,0.6003364475516084,2
6.01100183363894,0.6300517941424527,2
6.021003500583431,0.6738724451286026,2
6.031005167527922,0.7140613766968953,2
6.041006834472412,0.7380452578727589,2
6.051008501416903,0.7586799665071923,2
6.061010168361394,0.7921252095743343,2
6.071011835305884,0.7749416122731977,2
6.081013502250375,0.777283848069893,2
6.091015169194866,0.7634969667834777,2
6.101016836139356,0.7530590173551532,2
6.111018503083848,0.7343087613603291,2
6.121020170028339,0.7068467953196765,2
6.131021836972829,0.7029656127780801,2
6.14102350391732,0.6596583794157492,2
6.151025170861811,0.6322055715523797,2
6.161026837806301,0.5924965948689063,2
6.171028504750792,0.5267250889097196,2
6.181030171695283,0.501378927449284,2
6.191031838639773,0.45011245228256924,2
6.201033505584264,0.4219876484390501,2
6.211035172528755,0.37511736409793517,2
6.221036839473245,0.3369412912291232,2
6.231038506417737,0.2910440293710439,2
6.241040173362228,0.26062689590717275,2
6.251041840306718,0.21659793109220923,2
6.261043507251209,0.17587144449703432,2
6.2710451741957,0.17352527700519094,2
6.28104684114019,0.12639904037918667,2
6.291048508084681,0.10033128825449374,2
6.301050175029172,0.0692098790406539,2
6.311051841973662,0.06300143792285322,2
6.321053508918153,0.03777221857693003,2
6.331055175862644,0.020726807261530533,2
6.341056842807134,0.011772540723804941,2
6.351058509751626,0.03079539854676019,2
6.361060176696117,-0.02038839011229254,2
6.371061843640607,0.005153694305216554,2
6.381063510585098,-0.003451912763894273,2
6.391065177529589,-0.012096935987264355,2
6.401066844474079,-0.004539092659350587,2
6.41106851141857,0.016620049274760483,2
6.421070178363061,-0.0010914606383900076,2
6.431071845307551,0.0005310318509786655,2
6.441073512252042,0.00658645072004181,2
6.451075179196533,0.02277348285726882,2
6.461076846141024,-0.009804643276401796,2
6.471078513085515,-0.027437666554339126,2
6.4810801800300055,-0.024666346767237037,2
6.491081846974496,-0.03128975781061457,2
6.501083513918987,-0.07700086733110938,2
6.5110851808634775,-0.08836554347835501,2
6.521086847807968,-0.10874959041476778,2
6.531088514752459,-0.13836712356653644,2
6.54109018169695,-0.16224242943654743,2
6.55109184864144,-0.20296402066107774,2
6.561093515585931,-0.2465789166361098,2
6.571095182530422,-0.2722542882844287,2
6.581096849474913,-0.30962929419584534,2
6.591098516419404,-0.35276038448938984,2
6.6011001833638945,-0.3975497981070526,2
6.611101850308385,-0.4295493675459723,2
6.621103517252876,-0.475514100209973,2
6.6311051841973665,-0.5119925270331033,2
6.641106851141857,-0.557415222245343,2
6.651108518086348,-0.597434811392015,2
6.6611101850308385,-0.6469083667717035,2
6.671111851975329,-0.6827657583029539,2
6.68111351891982,-0.7062845874811228,2
6.6911151858643105,-0.743039844750126,2
6.701116852808802,-0.7459923514224737,2
6.711118519753293,-0.744435426134447,2
6.721120186697783,-0.7683100439526009,2
6.731121853642274,-0.7727028933691913,2
6.741123520586765,-0.7798477677023741,2
6.7511251875312555,-0.7653126135275877,2
6.761126854475746,-0.7522138385316798,2
6.771128521420237,-0.7336234019776461,2
6.7811301883647275,-0.7131807072195349,2
6.791131855309218,-0.6606153995542748,2
6.801133522253709,-0.6119820153064245,2
6.8111351891982,-0.5891217769493794,2
6.821136856142691,-0.531879091628932,2
6.831138523087182,-0.4717879213766069,2
6.841140190031672,-0.40582738578528893,2
6.851141856976163,-0.3355773709162673,2
6.861143523920654,-0.27075088334673414,2
6.871145190865144,-0.19045793722970983,2
6.881146857809635,-0.11637981394410568,2
6.891148524754126,-0.05134664551438017,2
6.901150191698616,0.03530818485694814,2
6.911151858643107,0.10991952048538312,2
6.921153525587598,0.17896103730977295,2
6.931155192532089,0.2482969074848044,2
6.94115685947658,0.3303106442802232,2
6.951158526421071,0.4049622546877665,2
6.961160193365561,0.4638524324826603,2
6.971161860310052,0.5105308845427966,2
6.981163527254543,0.5897080315841892,2
6.991165194199033,0.6092910616865043,2
7.001166861143524,0.6707392671281547,2
7.011168528088015,0.7120331954011143,2
7.021170195032505,0.7393469257606728,2
7.031171861976996,0.7551159354759771,2
7.041173528921487,0.7511323297078908,2
7.051175195865978,0.779382953023725,2
7.061176862810469,0.7788560915022605,2
7.07117852975496,0.7780910685081478,2
7.08118019669945,0.7643586572131983,2
7.091181863643941,0.7526803591636432,2
7.101183530588432,0.7467565038935505,2
7.111185197532922,0.7015227576695915,2
7.121186864477413,0.6677286142775078,2
7.131188531421904,0.6409790939594565,2
7.141190198366394,0.610785780761116,2
7.151191865310885,0.5659319430939163,2
7.161193532255377,0.5243789148629796,2
7.171195199199867,0.4774636450057935,2
7.181196866144358,0.4404735110397255,2
7.191198533088849,0.4074107733780704,2
7.201200200033339,0.338296392086611,2
7.21120186697783,0.3139158996890144,2
7.221203533922321,0.27456827858093696,2
7.231205200866811,0.23992679268731193,2
7.241206867811302,0.22031785042417693,2
7.251208534755793,0.16142494116643713,2
7.261210201700283,0.13561927240980828,2
7.271211868644774,0.10736794921363704,2
7.2812135355892655,0.09826432228663924,2
7.291215202533756,0.06857803332014067,2
7.301216869478247,0.05032850782230473,2
7.311218536422738,0.025255122227113666,2
7.321220203367228,0.010854958318838478,2
7.331221870311719,0.02276593320448038,2
7.34122353725621,0.0069484728176052645,2
7.3512252042007,-0.01472852731230331,2
7.361226871145191,-0.012515989205228934,2
7.371228538089682,-0.005896316516723347,2
7.381230205034172,0.00982462518345615,2
7.391231871978664,0.0019495913300904251,2
7.4012335389231545,0.0016869469676801486,2
7.411235205867645,-0.0041497732278948166,2
7.421236872812136,0.0025168942020168256,2
7.4312385397566265,-0.010021849400727891,2
7.441240206701117,0.009840988563639762,2
7.451241873645608,-0.008298031479853097,2
7.4612435405900985,-0.044293074297160395,2
7.471245207534589,-0.06150334478550519,2
7.48124687447908,-0.07224986106988493,2
7.4912485414235706,-0.07053418038099299,2
7.501250208368061,-0.11721350345170127,2
7.511251875312553,-0.14081242011697506,2
7.5212535422570435,-0.16237502299163814,2
7.531255209201534,-0.18292002398848894,2
7.541256876146025,-0.21057563106586663,2
7.5512585430905155,-0.2549995891982758,2
7.561260210035006,-0.28836962480538897,2
7.571261876979497,-0.3274828435982261,2
7.5812635439239875,-0.3762490948619213,2
7.591265210868478,-0.3988435605236231,2
7.601266877812969,-0.44979558162799116,2
7.6112685447574595,-0.5061910695374854,2
7.62127021170195,-0.5502678456946272,2
7.631271878646442,-0.5623061566754227,2
7.641273545590932,-0.6395481857329103,2
7.651275212535423,-0.6708803690690328,2
7.661276879479914,-0.6901857303627635,2
7.671278546424404,-0.7283536531230451,2
7.681280213368895,-0.7432137087587761,2
7.691281880313386,-0.7494492898257312,2
7.7012835472578764,-0.7642499863772796,2
7.711285214202367,-0.7760420750832615,2
7.721286881146858,-0.7851180295122875,2
7.7312885480913485,-0.7613428863241196,2
7.74129021503584,-0.7646368099516672,2
7.751291881980331,-0.7534602426478346,2
7.761293548924821,-0.71224858156157,2
7.771295215869312,-0.6853121620584826,2
7.781296882813803,-0.656869108907098,2
7.791298549758293,-0.5910829801801497,2
7.801300216702784,-0.540423927918154,2
7.811301883647275,-0.5108647789379348,2
7.821303550591765,-0.4597511780853577,2
7.831305217536256,-0.3710281533892848,2
7.841306884480747,-0.29919007608306947,2
7.851308551425237,-0.22902548493848124,2
7.861310218369729,-0.15611351819759733,2
7.87131188531422,-0.07174639007949321,2
7.88131355225871,0.01158615289996779,2
7.891315219203201,0.08090129271472608,2
7.901316886147692,0.1668145284862046,2
7.911318553092182,0.23490305330893513,2
7.921320220036673,0.2967697727804973,2
7.931321886981164,0.35054886664505525,2
7.941323553925654,0.4287644849644318,2
7.951325220870145,0.4772684517253464,2
7.961326887814636,0.552721421726974,2
7.971328554759126,0.5885170533613546,2
7.981330221703618,0.6396209701225486,2
7.991331888648109,0.6761575952947959,2
8.001333555592598,0.7116760364588979,2
8.01133522253709,0.7548187230085247,2
8.02133688948158,0.7511858187997885,2
8.031338556426071,0.7737407679742964,2
8.041340223370563,0.7808593907051009,2
8.051341890315053,0.7792957821681517,2
8.061343557259544,0.7750645036850236,2
8.071345224204034,0.7516658502483029,2
8.081346891148526,0.7577593560986537,2
8.091348558093015,0.7286966779647573,2
8.101350225037507,0.6680242882189183,2
8.111351891981997,0.6481747333071296,2
8.121353558926488,0.6234153536656597,2
8.131355225870978,0.584510367877391,2
8.14135689281547,0.553495142077673,2
8.151358559759961,0.5041719040001983,2
8.161360226704451,0.4887230147797921,2
8.171361893648942,0.40721305886659576,2
8.181363560593432,0.3943650714002721,2
8.191365227537924,0.33556770246522116,2
8.201366894482414,0.28591704232198795,2
8.211368561426905,0.24229279056879766,2
8.221370228371395,0.223660537723612,2
8.231371895315887,0.19446988820449,2
8.241373562260376,0.13322486410581547,2
8.251375229204868,0.1076274104496327,2
8.261376896149358,0.11052598865035866,2
8.27137856309385,0.08300102999278243,2
8.28138023003834,0.03588425081733759,2
8.29138189698283,0.044031321454518914,2
8.301383563927322,0.02777944750856309,2
8.311385230871812,0.022505260328851442,2
8.321386897816303,0.01709264712481435,2
8.331388564760793,0.0005625148929706524,2
8.341390231705285,-0.0044929535001636605,2
8.351391898649775,0.0033871199011693523,2
8.361393565594266,0.0020507266338975452,2
8.371395232538756,-0.007506459960965547,2
8.381396899483248,-0.0048803780906978185,2
8.391398566427739,0.0056741656297332275,2
8.401400233372229,0.0038432513093827857,2
8.41140190031672,0.0012038890657296835,2
8.42140356726121,0.0025593487457270664,2
8.431405234205702,-0.030300057955773722,2
8.441406901150192,-0.029978317135258697,2
8.451408568094683,-0.03394280840355777,2
8.461410235039173,-0.04845321960547916,2
8.471411901983664,-0.06068370201704673,2
8.481413568928154,-0.06107550888489191,2
8.491415235872646,-0.0999059228100492,2
8.501416902817137,-0.13520632348665934,2
8.511418569761627,-0.17593500879169252,2
8.521420236706119,-0.18803250084106476,2
8.531421903650608,-0.2356721510934015,2
8.5414235705951,-0.2646870191177833,2
8.55142523753959,-0.31182285315623015,2
8.561426904484081,-0.3403451033143453,2
8.571428571428571,-0.4121082194848927,2
8.581430238373063,-0.44497039324402266,2
8.591431905317553,-0.47239255856951307,2
8.601433572262044,-0.5101584972955093,2
8.611435239206534,-0.5535831427647943,2
8.621436906151025,-0.6189562659943617,2
8.631438573095517,-0.6462363733454914,2
8.641440240040007,-0.6622268394530866,2
8.651441906984498,-0.7122229304880596,2
8.661443573928988,-0.7462117023940731,2
8.67144524087348,-0.7444265332206044,2
8.68144690781797,-0.7703228908150436,2
8.691448574762461,-0.781045931176542,2
8.70145024170695,-0.7762548426371021,2
8.711451908651442,-0.7626595572945087,2
8.721453575595932,-0.7838694917275029,2
8.731455242540424,-0.7437243128295633,2
8.741456909484915,-0.7318151751999469,2
8.751458576429405,-0.7044627355315863,2
8.761460243373897,-0.6622930269075809,2
8.771461910318386,-0.6229682669610528,2
8.781463577262878,-0.5841502806701268,2
8.791465244207368,-0.5271038039630125,2
8.80146691115186,-0.4824359417091359,2
8.811468578096349,-0.40368004130782625,2
8.82147024504084,-0.3324015410297746,2
8.83147191198533,-0.26413655460443214,2
8.841473578929822,-0.21525086032874954,2
8.851475245874314,-0.13597001088359825,2
8.861476912818803,-0.04277842610262035,2
8.871478579763295,0.03515349411013276,2
8.881480246707785,0.10420677367460587,2
8.891481913652276,0.17715049095951052,2
8.901483580596766,0.25193130328011815,2
8.911485247541258,0.33054094250582533,2
8.921486914485747,0.4096803515396774,2
8.931488581430239,0.45121097661702014,2
8.941490248374729,0.5116652787867466,2
8.95149191531922,0.5595186879242443,2
8.96149358226371,0.6032082684083246,2
8.971495249208202,0.6760969038627839,2
8.981496916152693,0.7230750842806695,2
8.991498583097183,0.7275032387060322,2
9.001500250041675,0.7411227836894285,2
9.011501916986164,0.7606548097182042,2
9.021503583930656,0.7635311578165281,2
9.031505250875146,0.7841484607392023,2
9.041506917819637,0.7989938850036677,2
9.051508584764127,0.7703863716315629,2
9.061510251708619,0.7474821268686647,2
9.071511918653108,0.7238769368441221,2
9.0815135855976,0.7001498662954182,2
9.091515252542091,0.6819563286007416,2
9.101516919486581,0.6238612712592868,2
9.111518586431073,0.620743161526798,2
9.121520253375563,0.5771627264838421,2
9.131521920320054,0.5237253124089032,2
9.141523587264544,0.4839494363902498,2
9.151525254209036,0.4384934918644602,2
9.161526921153525,0.40508741727581216,2
9.171528588098017,0.347684384451712,2
9.181530255042507,0.32844648434571017,2
9.191531921986998,0.2724491478193695,2
9.20153358893149,0.22461236249065597,2
9.21153525587598,0.20107586516061784,2
9.221536922820471,0.170367939356578,2
9.231538589764961,0.12203387744666402,2
9.241540256709452,0.1211848179526979,2
9.251541923653942,0.08950131909532016,2
9.261543590598434,0.05383381478318372,2
9.271545257542924,0.05455198769462512,2
9.281546924487415,0.030394321027758464,2
9.291548591431905,0.028590467900675997,2
9.301550258376396,0.013703311450361536,2
9.311551925320888,0.004506263492050302,2
9.321553592265378,0.0072508869681955045,2
9.33155525920987,0.006047942307405327,2
9.34155692615436,-0.004868281447545857,2
9.35155859309885,0.007689528742599386,2
9.36156026004334,-0.008711511561534043,2
9.371561926987832,0.014166354814049754,2
9.381563593932322,-0.003993291955146511,2
9.391565260876813,-0.006187972891288732,2
9.401566927821303,-0.014413551674547137,2
9.411568594765795,0.00017481911931947758,2
9.421570261710285,-0.004511307409694059,2
9.431571928654776,-0.04228124547949916,2
9.441573595599268,-0.03333965829394872,2
9.451575262543757,-0.0483827737053992,2
9.461576929488249,-0.07721754362519627,2
9.471578596432739,-0.09430103579156536,2
9.48158026337723,-0.14273214201880843,2
9.49158193032172,-0.1389450945928276,2
9.501583597266212,-0.19533324736419336,2
9.511585264210701,-0.22046698269543,2
9.521586931155193,-0.2412209800327405,2
9.531588598099683,-0.30103847411412443,2
9.541590265044174,-0.3257597053294812,2
9.551591931988666,-0.3765368652648496,2
9.561593598933156,-0.3955204726709896,2
9.571595265877647,-0.47018258754918246,2
9.581596932822137,-0.4951151174995586,2
9.591598599766629,-0.5474169902670983,2
9.601600266711118,-0.5860431508317157,2
9.61160193365561,-0.6106013297803132,2
9.6216036006001,-0.6469915560221206,2
9.631605267544591,-0.6879300835999934,2
9.641606934489081,-0.7053000073040883,2
9.651608601433573,-0.74179535454687,2
9.661610268378064,-0.7481965129625077,2
9.671611935322554,-0.7756044148752244,2
9.681613602267046,-0.790827505817483,2
9.691615269211535,-0.7680116047683451,2
9.701616936156027,-0.768624853133789,2
9.711618603100517,-0.7466051941578004,2
9.721620270045008,-0.7356523377734995,2
9.731621936989498,-0.7146008830544556,2
9.74162360393399,-0.6891557982427737,2
9.75162527087848,-0.6667079909456444,2
9.761626937822971,-0.5874291960230478,2
9.77162860476746,-0.546911533329614,2
9.781630271711952,-0.5181960068781715,2
9.791631938656444,-0.4494299205530705,2
9.801633605600934,-0.3666388746401895,2
9.811635272545425,-0.3116489202418681,2
9.821636939489915,-0.24624423799029005,2
9.831638606434407,-0.15696878419312607,2
9.841640273378896,-0.08089985477006281,2
9.851641940323388,0.005851027187628435,2
9.861643607267878,0.08534135941437489,2
9.87164527421237,0.16032751669446732,2
9.881646941156859,0.2213681085168092,2
9.89164860810135,0.2860489120333822,2
9.901650275045842,0.3583713127011322,2
9.911651941990332,0.4116147647972802,2
9.921653608934824,0.508640470165262,2
9.931655275879313,0.543878986893127,2
9.941656942823805,0.6040427342746614,2
9.951658609768295,0.6293321813839751,2
9.961660276712786,0.6935547588248436,2
9.971661943657276,0.7057751188320661,2
9.981663610601768,0.7484669122404355,2
9.991665277546257,0.7609290041707033,2
10.001666944490749,0.7663135250846246,2
10.01166861143524,0.7823611620531027,2
10.02167027837973,0.7868932177337284,2
10.031671945324222,0.7750357924412927,2
10.041673612268712,0.7424073491813854,2
10.051675279213203,0.7285753557339874,2
10.061676946157693,0.7275511023298235,2
10.071678613102184,0.6924228010708522,2
10.081680280046674,0.6543284980791297,2
10.091681946991166,0.6221321578081827,2
10.101683613935656,0.5887401821855541,2
10.111685280880147,0.5421082551733992,2
10.121686947824637,0.5048405546246131,2
10.131688614769129,0.45746558412900507,2
10.14169028171362,0.4285598013451971,2
10.15169194865811,0.35530158097081277,2
10.161693615602601,0.33220625049587593,2
10.171695282547091,0.30028373731613744,2
10.181696949491583,0.24589726713145904,2
10.191698616436073,0.22995333174214275,2
10.201700283380564,0.19256903572705766,2
10.211701950325054,0.173386961056389,2
10.221703617269545,0.14037670036179561,2
10.231705284214035,0.09085896937087123,2
10.241706951158527,0.08569991862241218,2
10.251708618103018,0.07371910874298535,2
10.261710285047508,0.04203912756305746,2
10.271711951992,0.025565371043961487,2
10.28171361893649,0.021388732396953304,2
10.291715285880981,0.007047243457153623,2
10.30171695282547,0.0052373594385778065,2
10.311718619769962,-0.00884166513982613,2
10.321720286714452,-0.018052533332568954,2
10.331721953658944,0.003746184258081876,2
10.341723620603434,-0.008016504917738199,2
10.351725287547925,0.013403567932007945,2
10.361726954492417,0.007879695318231036,2
10.371728621436906,0.0010667691996672575,2
10.381730288381398,-0.0007056354461669311,2
10.391731955325888,-0.018643759432090762,2
10.40173362227038,-0.02817184157340541,2
10.41173528921487,-0.018750234026263485,2
10.42173695615936,-0.04128737675651107,2
10.43173862310385,-0.051370132552961266,2
10.441740290048342,-0.05450391720654725,2
10.451741956992832,-0.07616879311232869,2
10.461743623937323,-0.10634219661925949,2
10.471745290881813,-0.122202093834357,2
10.481746957826305,-0.17685269014179272,2
10.491748624770796,-0.19190453506741018,2
10.501750291715286,-0.23620104169159967,2
10.511751958659778,-0.2795333764030353,2
10.521753625604267,-0.3242169822109835,2
10.531755292548759,-0.35311505653915587,2
10.541756959493249,-0.4121558095835504,2
10.55175862643774,-0.446685267875482,2
10.56176029338223,-0.45770308389147357,2
10.571761960326722,-0.5284659389680747,2
10.581763627271211,-0.5597869641255552,2
10.591765294215703,-0.601274016390493,2
10.601766961160195,-0.6298202315435417,2
10.611768628104684,-0.6645799734031571,2
10.621770295049176,-0.7087886171013692,2
10.631771961993666,-0.7239089441201053,2
10.641773628938157,-0.7361460195405041,2
10.651775295882647,-0.7677451864731814,2
10.661776962827139,-0.7757166261335605,2
10.671778629771628,-0.7950084267613987,2
10.68178029671612,-0.7818368951773912,2
10.69178196366061,-0.7759366871599516,2
10.701783630605101,-0.7441277317628942,2
10.711785297549593,-0.7316048192643955,2
10.721786964494083,-0.7034101325100127,2
10.731788631438574,-0.6599330170739078,2
10.741790298383064,-0.6226312630384828,2
10.751791965327556,-0.5817715904742287,2
10.761793632272045,-0.5253183756819639,2
10.771795299216537,-0.4831021087704602,2
10.781796966161027,-0.4074290902148066,2
10.791798633105518,-0.3274709109336331,2
10.801800300050008,-0.28489141746824065,2
10.8118019669945,-0.20612427670002084,2
10.82180363393899,-0.126250988997117,2
10.831805300883481,-0.043020880872603404,2
10.841806967827972,0.044783333720664245,2
10.851808634772462,0.1157730239620355,2
10.861810301716954,0.18193426329131981,2
10.871811968661444,0.24459358387228314,2
10.881813635605935,0.3187567436720652,2
10.891815302550425,0.3682645659931083,2
10.901816969494917,0.46074196565889386,2
10.911818636439406,0.5149679004432225,2
10.921820303383898,0.5760318903909659,2
10.931821970328388,0.6284623804527432,2
10.94182363727288,0.6821080373248672,2
10.95182530421737,0.7099547226477201,2
10.96182697116186,0.7226541247180414,2
10.971828638106352,0.7399738944793978,2
10.981830305050842,0.7746325019331526,2
10.991831971995333,0.7477435927038,2
11.001833638939823,0.7786645281362199,2
11.011835305884315,0.7722354071258712,2
11.021836972828805,0.7558832847661558,2
11.031838639773296,0.7574005972868433,2
11.041840306717786,0.7327967717014318,2
11.051841973662277,0.7083267182327353,2
11.061843640606769,0.6625623301608127,2
11.071845307551259,0.6407832723599568,2
11.08184697449575,0.6044123904185447,2
11.09184864144024,0.5646392950968051,2
11.101850308384732,0.5272031717257999,2
11.111851975329222,0.48192479400680377,2
11.121853642273713,0.4486362802345659,2
11.131855309218203,0.38486389900666407,2
11.141856976162694,0.3759344522833443,2
11.151858643107184,0.32829333757590534,2
11.161860310051676,0.268332767584915,2
11.171861976996166,0.22488949396363395,2
11.181863643940657,0.19713926129302142,2
11.191865310885149,0.17721560182054397,2
11.201866977829638,0.13516776271732653,2
11.21186864477413,0.1051627535928488,2
11.22187031171862,0.07366460308332344,2
11.231871978663111,0.06981248429588814,2
11.241873645607601,0.03225278287046038,2
11.251875312552093,0.02967147646360344,2
11.261876979496583,0.017262828911378796,2
11.271878646441074,0.022948700720820607,2
11.281880313385564,0.005984596025573663,2
11.291881980330055,-0.011377826803855993,2
11.301883647274547,0.014077569077725527,2
11.311885314219037,0.001585783073513493,2
11.321886981163528,-0.009224823381712658,2
11.331888648108018,-0.011722882258358767,2
11.34189031505251,-0.00022669940050052708,2
11.351891981997,0.0060663385885849665,2
11.361893648941491,-0.01258531548284158,2
11.37189531588598,0.01098459350991923,2
11.381896982830472,-0.012907481232616728,2
11.391898649774962,-0.024815578352163723,2
11.401900316719454,-0.01986951750668527,2
11.411901983663945,-0.031699204487019725,2
11.421903650608435,-0.06320662268989172,2
11.431905317552927,-0.0798963459072646,2
11.441906984497416,-0.09115367812950115,2
11.451908651441908,-0.11836162463496674,2
11.461910318386398,-0.14522710688086402,2
11.47191198533089,-0.18028218846425076,2
11.481913652275379,-0.21765844499658044,2
11.49191531921987,-0.2640449542707963,2
11.50191698616436,-0.31144063663978244,2
11.511918653108852,-0.3249727848750682,2
11.521920320053344,-0.35029161084709115,2
11.531921986997833,-0.42404578369339996,2
11.541923653942325,-0.44686047135118023,2
11.551925320886815,-0.5073296606203823,2
11.561926987831306,-0.55177770352813,2
11.571928654775796,-0.5914790934466296,2
11.581930321720288,-0.6034007172060076,2
11.591931988664777,-0.6567582273789545,2
11.601933655609269,-0.7002971400880785,2
11.611935322553759,-0.7144953762122067,2
11.62193698949825,-0.7417482222307691,2
11.63193865644274,-0.7719193269653474,2
11.641940323387232,-0.736244816272378,2
11.651941990331723,-0.7855609646192083,2
11.661943657276213,-0.7736122017481498,2
11.671945324220705,-0.7671612647204259,2
11.681946991165194,-0.7811561243389633,2
11.691948658109686,-0.7449416363651298,2
11.701950325054176,-0.7241084209909512,2
11.711951991998667,-0.6857401674203578,2
11.721953658943157,-0.659787515762399,2
11.731955325887649,-0.6092058057712364,2
11.741956992832138,-0.5664999798997749,2
11.75195865977663,-0.485934575008987,2
11.761960326721121,-0.436539168331102,2
11.771961993665611,-0.3736413299330147,2
11.781963660610103,-0.31021593216207827,2
11.791965327554593,-0.22195247816882774,2
11.801966994499084,-0.1635355875016453,2
11.811968661443574,-0.08206256298448467,2
11.821970328388065,-0.013445872463417694,2
11.831971995332555,0.08022743121952275,2
11.841973662277047,0.15374741107834997,2
11.851975329221537,0.21666366029136808,2
11.861976996166028,0.28538766303790364,2
11.87197866311052,0.35463660106571404,2
11.88198033005501,0.4390441906187257,2
11.891981996999501,0.4692703730335115,2
11.90198366394399,0.5362550522218609,2
11.911985330888482,0.5994098233301609,2
11.921986997832972,0.648374525910814,2
11.931988664777464,0.6826849101989662,2
11.941990331721954,0.7229616824424924,2
11.951991998666445,0.7403544426648594,2
11.961993665610935,0.7523502267162415,2
11.971995332555426,0.7873451455460535,2
11.981996999499916,0.7741417334908086,2
11.991998666444408,0.7898207699232951,2
12.0020003333889,0.780676330803902,2
12.01200200033339,0.7653114471593704,2
12.02200366727788,0.7256069356457646,2
12.03200533422237,0.7138545793432912,2
12.042007001166862,0.6892558032755338,2
12.052008668111352,0.6517762750666372,2
12.062010335055843,0.6232986617246992,2
12.072012002000333,0.606126752517791,2
12.082013668944825,0.555658542197502,2
12.092015335889315,0.48511619968949177,2
12.102017002833806,0.4712233669839725,2
12.112018669778298,0.41007545509432664,2
12.122020336722787,0.3744912003118843,2
12.132022003667279,0.3387335792250193,2
12.142023670611769,0.30095352592725955,2
12.15202533755626,0.2679638445303541,2
12.16202700450075,0.21513187449123186,2
12.172028671445242,0.18396831184825768,2
12.182030338389731,0.14566604269282174,2
12.192032005334223,0.12509373424394313,2
12.202033672278713,0.09817381138190241,2
12.212035339223204,0.06498615692556113,2
12.222037006167696,0.051252754635613844,2
12.232038673112186,0.03472149453453517,2
12.242040340056677,0.027930584332438547,2
12.252042007001167,0.02460768567878327,2
12.262043673945659,0.025330941063058755,2
12.272045340890148,0.0009525647180485507,2
12.28204700783464,-0.001699680751733412,2
12.29204867477913,-0.009984518216792158,2
12.302050341723621,0.01145855940168996,2
12.312052008668111,-0.0016304715264999433,2
12.322053675612603,0.019433135477521093,2
12.332055342557092,-0.000948128026657192,2
12.342057009501584,-0.0019328986262723592,2
12.352058676446076,-0.011706699968189021,2
12.362060343390565,-0.004680659721058647,2
12.372062010335057,-0.01770168223444308,2
12.382063677279547,-0.007452387328681838,2
12.392065344224038,-0.03714142502838688,2
12.402067011168528,-0.03951660166516362,2
12.41206867811302,-0.06521895873754312,2
12.42207034505751,-0.10612588283362895,2
12.432072012002001,-0.10244038791652672,2
12.44207367894649,-0.1335550814603785,2
12.452075345890982,-0.17331419603463366,2
12.462077012835474,-0.18753982543943298,2
12.472078679779964,-0.2318663211900895,2
12.482080346724455,-0.2648206849190955,2
12.492082013668945,-0.29365577921246383,2
12.502083680613437,-0.35355289329183326,2
12.512085347557926,-0.3683368645125934,2
12.522087014502418,-0.43906100295717937,2
12.532088681446908,-0.45773619958870093,2
12.5420903483914,-0.5094437411566467,2
12.552092015335889,-0.5769343199185012,2
12.56209368228038,-0.5857975328388682,2
12.572095349224872,-0.646169273180342,2
12.582097016169362,-0.6733210277236533,2
12.592098683113853,-0.694834958189573,2
12.602100350058343,-0.7202466076852688,2
12.612102017002835,-0.7588499866622165,2
12.622103683947325,-0.7773520608842573,2
12.632105350891816,-0.7608018500922595,2
12.642107017836306,-0.7828686767514728,2
12.652108684780798,-0.7808951873368274,2
12.662110351725287,-0.7634360942704413,2
12.672112018669779,-0.7456603867122228,2
12.682113685614269,-0.7242043037740801,2
12.69211535255876,-0.7167343470110843,2
12.702117019503252,-0.6712621109002174,2
12.712118686447742,-0.6360444158854669,2
12.722120353392233,-0.5819815534357331,2
12.732122020336723,-0.5411539776462067,2
12.742123687281214,-0.4662186017768116,2
12.752125354225704,-0.3961888766738841,2
12.762127021170196,-0.3472352778033735,2
12.772128688114686,-0.2663687488461971,2
12.782130355059177,-0.19894323397399988,2
12.792132022003667,-0.11732562284910115,2
12.802133688948159,-0.03572307890165879,2
12.81213535589265,0.02319566798305414,2
12.82213702283714,0.1164112317789526,2
12.832138689781631,0.16511415290762074,2
12.842140356726121,0.25735451419810834,2
12.852142023670613,0.30880542627094465,2
12.862143690615103,0.402780737200327,2
12.872145357559594,0.46873688641082356,2
12.882147024504084,0.508989110818971,2
12.892148691448575,0.5627122294148035,2
12.902150358393065,0.6304755629268741,2
12.912152025337557,0.653035969847794,2
12.922153692282048,0.7033057602407042,2
12.932155359226538,0.7297700943004939,2
12.94215702617103,0.7471340843895402,2
12.95215869311552,0.7649244101153236,2
12.962160360060011,0.7922024582746429,2
12.9721620270045,0.7807813742978832,2
12.982163693948992,0.7809883308035727,2
12.992165360893482,0.7794306214130932,2
13.002167027837974,0.755669235862252,2
13.012168694782464,0.7267130156406489,2
13.022170361726955,0.7071582138254955,2
13.032172028671445,0.6681162119165261,2
13.042173695615936,0.6580528880809886,2
13.052175362560428,0.62163720085878,2
13.062177029504918,0.5827967645061884,2
13.07217869644941,0.5620528491146002,2
13.0821803633939,0.48162276205979065,2
13.09218203033839,0.43104446229152477,2
13.10218369728288,0.4010539592345516,2
13.112185364227372,0.3554297462055286,2
13.122187031171862,0.31584276541744893,2
13.132188698116353,0.307447978010261,2
13.142190365060843,0.24157591266389802,2
13.152192032005335,0.19987165125393969,2
13.162193698949826,0.17056769877955044,2
13.172195365894316,0.12940660405415128,2
13.182197032838808,0.12372486664705745,2
13.192198699783297,0.09323230605747615,2
13.202200366727789,0.08158800120695908,2
13.212202033672279,0.05160724893555401,2
13.22220370061677,0.04590544915549401,2
13.23220536756126,0.013798297690090885,2
13.242207034505752,0.049508314377463974,2
13.252208701450241,0.015837061639065713,2
13.262210368394733,0.02421036830519974,2
13.272212035339225,-0.009429340395210059,2
13.282213702283714,-0.012892725087185353,2
13.292215369228206,-0.01821306731052502,2
13.302217036172696,0.007587959410489335,2
13.312218703117187,0.0054398881317987945,2
13.322220370061677,-0.00367865929895787,2
13.332222037006169,0.0006149018025926535,2
13.342223703950658,-0.02385447912867082,2
13.35222537089515,-0.007637306721533095,2
13.36222703783964,-0.015209808136198278,2
13.372228704784131,-0.02094250374000498,2
13.382230371728621,-0.03237460140616081,2
13.392232038673113,-0.05950026923121667,2
13.402233705617604,-0.0750869182166956,2
13.412235372562094,-0.1011616828437699,2
13.422237039506586,-0.12350850694746097,2
13.432238706451075,-0.16757989381475225,2
13.442240373395567,-0.16680844027490888,2
13.452242040340057,-0.2183470760890422,2
13.462243707284548,-0.2583429514215513,2
13.472245374229038,-0.3005469081825429,2
13.48224704117353,-0.3418435896642899,2
13.49224870811802,-0.36448877400676216,2
13.502250375062511,-0.4103224027072067,2
13.512252042007002,-0.4558065188176951,2
13.522253708951492,-0.4967362424078579,2
13.532255375895984,-0.5363781014472311,2
13.542257042840474,-0.5697750763335875,2
13.552258709784965,-0.6274948790100622,2
13.562260376729455,-0.6495337905027284,2
13.572262043673947,-0.6887118896376084,2
13.582263710618436,-0.7209326163225835,2
13.592265377562928,-0.7570114214500975,2
13.602267044507418,-0.7565456246445467,2
13.61226871145191,-0.774624520723776,2
13.6222703783964,-0.7648277112565619,2
13.63227204534089,-0.7793841112218179,2
13.642273712285382,-0.7675550278524158,2
13.652275379229872,-0.7700584391005276,2
13.662277046174363,-0.7660106337984023,2
13.672278713118853,-0.7094478424045972,2
13.682280380063345,-0.6821543204719827,2
13.692282047007835,-0.6443143109670685,2
13.702283713952326,-0.6040938038723932,2
13.712285380896816,-0.5470407587748868,2
13.722287047841307,-0.4931890957169785,2
13.732288714785797,-0.44847518544944726,2
13.742290381730289,-0.3739376648360254,2
13.75229204867478,-0.3271748218313309,2
13.76229371561927,-0.23593996741697934,2
13.772295382563762,-0.16157728886961756,2
13.782297049508252,-0.07749083322295268,2
13.792298716452743,-0.019248093989155095,2
13.802300383397233,0.07227690046543747,2
13.812302050341724,0.14728815519648525,2
13.822303717286214,0.2182212341444323,2
13.832305384230706,0.29062087541952153,2
13.842307051175196,0.3448200645319978,2
13.852308718119687,0.41911750949245896,2
13.862310385064179,0.47902473078801117,2
13.872312052008668,0.5402788960826496,2
13.88231371895316,0.5971964465359432,2
13.89231538589765,0.6357520207223211,2
13.902317052842141,0.6731724170550244,2
13.912318719786631,0.7077422587678981,2
13.922320386731123,0.7431774511294915,2
13.932322053675612,0.7431779606356365,2
13.942323720620104,0.7663223112031717,2
13.952325387564594,0.7819809105732688,2
13.962327054509085,0.7702919720140461,2
13.972328721453577,0.7747234209216936,2
13.982330388398067,0.7595679161194766,2
13.992332055342558,0.757591967760302,2
14.002333722287048,0.7174680154845996,2
14.01233538923154,0.7059952239922636,2
14.02233705617603,0.6675998731194288,2
14.032338723120521,0.641064726909212,2
14.04234039006501,0.5985020446089072,2
14.052342057009502,0.5427385998173682,2
14.062343723953992,0.5066831493847983,2
14.072345390898484,0.4760015151102188,2
14.082347057842973,0.43766829690641845,2
14.092348724787465,0.3686630546392445,2
14.102350391731957,0.34158283346056645,2
14.112352058676446,0.30440498737308014,2
14.122353725620938,0.25162421203419616,2
14.132355392565428,0.2125296645784657,2
14.14235705950992,0.1639176176570214,2
14.152358726454409,0.15674180252734748,2
14.1623603933989,0.1305511761860225,2
14.17236206034339,0.08759651103474923,2
14.182363727287882,0.06473654925926212,2
14.192365394232372,0.050122387755049916,2
14.202367061176863,0.033396890363316376,2
14.212368728121355,0.020182383249750795,2
14.222370395065845,0.0190459525346833,2
14.232372062010336,-0.009002780713944235,2
14.242373728954826,0.0016697606448334255,2
14.252375395899318,0.005856653954682638,2
14.262377062843807,0.00026976696537704464,2
14.272378729788299,-0.005329073707884328,2
14.282380396732789,0.006049593022242886,2
14.29238206367728,0.0019413770667010655,2
14.30238373062177,0.003649633346579158,2
14.312385397566262,-0.006138427109742834,2
14.322387064510753,-0.0021931399632528483,2
14.332388731455243,-0.020863013784000052,2
14.342390398399735,-0.008854823933404442,2
14.352392065344224,-0.04211033016220181,2
14.362393732288716,-0.04168838431988844,2
14.372395399233206,-0.05014376269661928,2
14.382397066177697,-0.07743775182158627,2
14.392398733122187,-0.08985198719494382,2
14.402400400066679,-0.13136984716849595,2
14.412402067011168,-0.13820262948177883,2
14.42240373395566,-0.1541625516259796,2
14.432405400900151,-0.18914873908672553,2
14.442407067844641,-0.2399756575390529,2
14.452408734789133,-0.27051035878044494,2
14.462410401733623,-0.3159469206897552,2
14.472412068678114,-0.3424739787729334,2
14.482413735622604,-0.3857227264005716,2
14.492415402567095,-0.4391678256162235,2
14.502417069511585,-0.4897330064255161,2
14.512418736456077,-0.5170934542297592,2
14.522420403400567,-0.5692177285910692,2
14.532422070345058,-0.6060278266016259,2
14.542423737289548,-0.644679713547139,2
14.55242540423404,-0.664395387318659,2
14.562427071178531,-0.724160291691492,2
14.57242873812302,-0.7365434630035257,2
14.582430405067512,-0.7481145297368287,2
14.592432072012002,-0.7653124616149565,2
14.602433738956494,-0.7789500726183541,2
14.612435405900984,-0.7813033433011589,2
14.622437072845475,-0.779272116425306,2
14.632438739789965,-0.7752204769323784,2
14.642440406734456,-0.7615220741027341,2
14.652442073678946,-0.7377714393854371,2
14.662443740623438,-0.6856329439400828,2
14.67244540756793,-0.6671750907135375,2
14.68244707451242,-0.6305829632016263,2
14.69244874145691,-0.5979377546402342,2
14.7024504084014,-0.5172967932436172,2
14.712452075345892,-0.48409063318093987,2
14.722453742290382,-0.40647550798893045,2
14.732455409234873,-0.3254552215550869,2
14.742457076179363,-0.26946124533728383,2
14.752458743123855,-0.2193551077949035,2
14.762460410068345,-0.11704962817594106,2
14.772462077012836,-0.020449434985215877,2
14.782463743957328,0.02663256882651431,2
14.792465410901817,0.11076899073061461,2
14.802467077846309,0.18923687827472677,2
14.812468744790799,0.26670141939831726,2
14.82247041173529,0.3337064141467459,2
14.83247207867978,0.3829026319654238,2
14.842473745624272,0.46424326765568746,2
14.852475412568761,0.5040761532321203,2
14.862477079513253,0.5547604729601389,2
14.872478746457743,0.615145674547223,2
14.882480413402234,0.6559794274843893,2
14.892482080346724,0.6951473674412834,2
14.902483747291216,0.729498921550679,2
14.912485414235707,0.7597147942633862,2
14.922487081180197,0.7724267619245293,2
14.932488748124689,0.7709337648416261,2
14.942490415069178,0.7687124572893933,2
14.95249208201367,0.771420901253432,2
14.96249374895816,0.7618992105382242,2
14.972495415902651,0.7513245544577759,2
14.982497082847141,0.7229763250002244,2
14.992498749791633,0.7129033911195393,2
15.002500416736122,0.6706257411970759,2
15.012502083680614,0.6473075398688896,2
15.022503750625106,0.6117260785646956,2
15.032505417569595,0.5759152231775231,2
15.042507084514087,0.5400794187867383,2
15.052508751458577,0.48642618980254715,2
15.062510418403068,0.45601520578328836,2
15.072512085347558,0.4032775538970072,2
15.08251375229205,0.3491940044553092,2
15.09251541923654,0.3100218430018122,2
15.102517086181031,0.28159127638496106,2
15.11251875312552,0.25058559369253564,2
15.122520420070012,0.19899007313607942,2
15.132522087014504,0.14939360347499364,2
15.142523753958994,0.1482012336739401,2
15.152525420903485,0.10073131602828968,2
15.162527087847975,0.10196470088952918,2
15.172528754792467,0.08182053124498442,2
15.182530421736956,0.05645455501135118,2
15.192532088681448,0.034670799938800095,2
15.202533755625938,0.034566675914167906,2
15.21253542257043,0.01101777828764041,2
15.222537089514919,0.01594038430221316,2
15.23253875645941,0.0021222344945340515,2
15.2425404234039,0.010673512824913103,2
15.252542090348392,-0.00354143488925526,2
15.262543757292883,0.003977263704602982,2
15.272545424237373,-0.01024746683709257,2
15.282547091181865,0.019676413996758638,2
15.292548758126355,-0.01219515688649192,2
15.302550425070846,-0.027738886684885517,2
15.312552092015336,-0.006740838087215819,2
15.322553758959828,0.0080378548916639,2
15.332555425904317,-0.026616762767293772,2
15.342557092848809,-0.03375099921848136,2
15.352558759793299,-0.03693005527941112,2
15.36256042673779,-0.047634253163435315,2
15.372562093682282,-0.07833127069455345,2
15.382563760626772,-0.08916945883188698,2
15.392565427571263,-0.11729454709958664,2
15.402567094515753,-0.1519211035733599,2
15.412568761460244,-0.15812488744984937,2
15.422570428404734,-0.2073177006868696,2
15.432572095349226,-0.25140129114492765,2
15.442573762293716,-0.2805797304990606,2
15.452575429238207,-0.32267803945924156,2
15.462577096182697,-0.3671940867833299,2
15.472578763127188,-0.41682227658114873,2
15.48258043007168,-0.4724478974529739,2
15.49258209701617,-0.510571530385541,2
15.502583763960661,-0.5377561703262631,2
15.512585430905151,-0.5838242193514702,2
15.522587097849643,-0.602504358361909,2
15.532588764794133,-0.6582534610748565,2
15.542590431738624,-0.6946001879993738,2
15.552592098683114,-0.7243094083535735,2
15.562593765627605,-0.7371634312125845,2
15.572595432572095,-0.7359793526289049,2
15.582597099516587,-0.7888634841576992,2
15.592598766461077,-0.7743996989646627,2
15.602600433405568,-0.7755791148630301,2
15.61260210035006,-0.7544597828338829,2
15.62260376729455,-0.758490208019978,2
15.632605434239041,-0.7352546739682537,2
15.64260710118353,-0.7236419575148388,2
15.652608768128022,-0.6750984090644903,2
15.662610435072512,-0.6410455392939002,2
15.672612102017004,-0.5979971889132261,2
15.682613768961494,-0.5651365953818938,2
15.692615435905985,-0.5087004544622936,2
15.702617102850475,-0.4460869925561883,2
15.712618769794966,-0.3819763984924721,2
15.722620436739458,-0.30291784130260874,2
15.732622103683948,-0.22827599572617752,2
15.74262377062844,-0.16931924503601029,2
15.752625437572929,-0.10033763894265527,2
15.76262710451742,-0.010340914951008065,2
15.77262877146191,0.07104009020898594,2
15.782630438406402,0.1397217488025012,2
15.792632105350892,0.21080951707004958,2
15.802633772295383,0.28053913003586445,2
15.812635439239873,0.3637223510337324,2
15.822637106184365,0.40662517987044555,2
15.832638773128856,0.46701469576168153,2
15.842640440073346,0.539788116786818,2
15.852642107017838,0.59920333725741,2
15.862643773962327,0.61853058247805,2
15.872645440906819,0.6895500379681205,2
15.882647107851309,0.7163531531998508,2
15.8926487747958,0.7378766168298188,2
15.90265044174029,0.7530352754005587,2
15.912652108684782,0.7869542385905555,2
15.922653775629271,0.7613133282601878,2
15.932655442573763,0.772531870410473,2
15.942657109518253,0.7826658680317988,2
15.952658776462744,0.7582860891120774,2
15.962660443407236,0.7428670617321845,2
15.972662110351726,0.7241799251149199,2
15.982663777296217,0.6928612189147446,2
15.992665444240707,0.6427226255625207,2
16.002667111185197,0.6097580477222287,2
16.01266877812969,0.5997690457600517,2
16.02267044507418,0.5476091703264344,2
16.03267211201867,0.5072915471501648,2
16.04267377896316,0.465187222158371,2
16.052675445907653,0.4463770416089558,2
16.062677112852143,0.37093968762897345,2
16.072678779796632,0.3262194730915853,2
16.082680446741126,0.2844964594877426,2
16.092682113685616,0.2648809584342664,2
16.102683780630105,0.20620576542321697,2
16.112685447574595,0.1651969254604136,2
16.12268711451909,0.16865002465363013,2
16.132688781463578,0.12175915708890844,2
16.142690448408068,0.09279577665313177,2
16.152692115352558,0.09720616932108947,2
16.16269378229705,0.061066821540987956,2
16.17269544924154,0.06145287423401615,2
16.18269711618603,0.037146435230981906,2
16.192698783130524,0.022548398511578086,2
16.202700450075014,0.0042768278304699476,2
16.212702117019504,0.00685297933573767,2
16.222703783963993,0.015276225621479629,2
16.232705450908487,-0.012140221872632832,2
16.242707117852976,-0.011093731469060682,2
16.252708784797466,0.003703160584550766,2
16.262710451741956,0.0024681105173229184,2
16.27271211868645,-0.0036354693281451834,2
16.28271378563094,0.00045611733359811487,2
16.29271545257543,-0.004691430933277981,2
16.302717119519922,-0.01424561217861771,2
16.312718786464412,-0.031216988826588517,2
16.322720453408902,-0.0201001886108928,2
16.33272212035339,-0.026365942354618397,2
16.342723787297885,-0.030871909781682902,2
16.352725454242375,-0.06472162798625616,2
16.362727121186865,-0.08939709501921676,2
16.372728788131354,-0.11377226253165494,2
16.382730455075848,-0.12529045924843518,2
16.392732122020337,-0.1460660988352097,2
16.402733788964827,-0.20688894264480212,2
16.41273545590932,-0.2308950777294838,2
16.42273712285381,-0.27057663355856343,2
16.4327387897983,-0.3128293548322505,2
16.44274045674279,-0.3367727558879982,2
16.452742123687283,-0.3924752935214953,2
16.462743790631773,-0.44750280257782665,2
16.472745457576263,-0.47626379258192564,2
16.482747124520753,-0.5121462355804829,2
16.492748791465246,-0.5644495161988649,2
16.502750458409736,-0.585692995264214,2
16.512752125354226,-0.6330715703201905,2
16.522753792298715,-0.6793296989626292,2
16.53275545924321,-0.7114703487332118,2
16.5427571261877,-0.7202913024011781,2
16.55275879313219,-0.7520929616718364,2
16.56276046007668,-0.7866876261118019,2
16.57276212702117,-0.755922553733678,2
16.58276379396566,-0.7711850639268896,2
16.59276546091015,-0.7769522704458196,2
16.602767127854644,-0.7663961247489807,2
16.612768794799134,-0.7734422327671153,2
16.622770461743624,-0.733027637485317,2
16.632772128688114,-0.7259498400065832,2
16.642773795632607,-0.6610816969013074,2
16.652775462577097,-0.6326536813795135,2
16.662777129521587,-0.5771735484975736,2
16.67277879646608,-0.5396455253845818,2
16.68278046341057,-0.469209060582111,2
16.69278213035506,-0.4179818533943196,2
16.70278379729955,-0.34443249466903725,2
16.712785464244043,-0.2769740304961239,2
16.722787131188532,-0.20111595895599624,2
16.732788798133022,-0.10776381962840692,2
16.742790465077512,-0.05990248086271452,2
16.752792132022005,0.023036324124858332,2
16.762793798966495,0.11299422805184872,2
16.772795465910985,0.18483875895115798,2
16.782797132855478,0.24625348037341332,2
16.792798799799968,0.3302827497559981,2
16.802800466744458,0.3833861873817564,2
16.812802133688947,0.44368227455441395,2
16.82280380063344,0.5124320502665821,2
16.83280546757793,0.558585700539938,2
16.84280713452242,0.6196200748713311,2
16.85280880146691,0.6562320210527038,2
16.862810468411404,0.7022659571033865,2
16.872812135355893,0.7200732214124929,2
16.882813802300383,0.7566100087179479,2
16.892815469244876,0.7673881333508932,2
16.902817136189366,0.7877801123347863,2
16.912818803133856,0.8004856362507538,2
16.922820470078346,0.7806589843348891,2
16.93282213702284,0.7541664029846821,2
16.94282380396733,0.7556255617625333,2
16.95282547091182,0.7391384691635325,2
16.96282713785631,0.7158776237673025,2
16.972828804800802,0.6687000822780804,2
16.98283047174529,0.6632079883560669,2
16.99283213868978,0.58496947016227,2
17.002833805634275,0.5765914493024813,2
17.012835472578764,0.5269794896811039,2
17.022837139523254,0.48578251315764825,2
17.032838806467744,0.44324514795121034,2
17.042840473412237,0.39463257174716593,2
17.052842140356727,0.3663951425583626,2
17.062843807301217,0.3099298265968876,2
17.072845474245707,0.27397511922937556,2
17.0828471411902,0.22807008843782936,2
17.09284880813469,0.1989891665853379,2
17.10285047507918,0.18535018569750417,2
17.112852142023673,0.13737854822846107,2
17.122853808968163,0.10183421469897073,2
17.132855475912653,0.09851541235979758,2
17.142857142857142,0.06361516431707628,2
17.152858809801636,0.048731433033415025,2
17.162860476746125,0.0312523943915748,2
17.172862143690615,0.010650197106015509,2
17.182863810635105,0.022806319989300956,2
17.1928654775796,-0.001827711470619853,2
17.202867144524088,0.014284783729572448,2
17.212868811468578,-0.010515210718364754,2
17.222870478413068,0.015783141562408634,2
17.23287214535756,7.563592093084344e-05,2
17.24287381230205,0.00875399067980026,2
17.25287547924654,-0.009272737424648696,2
17.262877146191034,0.00803504331640221,2
17.272878813135524,-0.0033417743755856924,2
17.282880480080014,-0.025892832211126864,2
17.292882147024503,-0.024296355986549098,2
17.302883813968997,-0.03216721276530188,2
17.312885480913486,-0.02555664076865309,2
17.322887147857976,-0.03700613540590179,2
17.332888814802466,-0.05474184030775457,2
17.34289048174696,-0.0793723566033564,2
17.35289214869145,-0.08968492819442572,2
17.36289381563594,-0.12024323736405382,2
17.372895482580432,-0.15276906860856593,2
17.382897149524922,-0.18262308732104682,2
17.392898816469412,-0.21598033479657966,2
17.4029004834139,-0.2533870716312231,2
17.412902150358395,-0.2951474887954991,2
17.422903817302885,-0.3330408821564721,2
17.432905484247375,-0.38616045672020927,2
17.442907151191864,-0.43166191867046194,2
17.452908818136358,-0.4620979077500922,2
17.462910485080847,-0.49347915147838617,2
17.472912152025337,-0.547548923272892,2
17.48291381896983,-0.5859013073527465,2
17.49291548591432,-0.5948519669855379,2
17.50291715285881,-0.6206638084918938,2
17.5129188198033,-0.6803433726151376,2
17.522920486747793,-0.7239438686713368,2
17.532922153692283,-0.7298504698045408,2
17.542923820636773,-0.7476233851140963,2
17.552925487581263,-0.7841713903356696,2
17.562927154525756,-0.774738176972423,2
17.572928821470246,-0.7882061272564286,2
17.582930488414735,-0.7794814278850122,2
17.59293215535923,-0.7598492731632734,2
17.60293382230372,-0.7537295967065898,2
17.61293548924821,-0.7306139715406013,2
17.622937156192698,-0.6780205161415516,2
17.63293882313719,-0.6526496670549919,2
17.64294049008168,-0.6102449091817594,2
17.65294215702617,-0.5468738524053153,2
17.66294382397066,-0.5107954712737497,2
17.672945490915154,-0.4297790826870247,2
17.682947157859644,-0.3689257470048075,2
17.692948824804134,-0.297616903340956,2
17.702950491748627,-0.240059412653662,2
17.712952158693117,-0.17771925355722915,2
17.722953825637607,-0.0789931084793941,2
17.732955492582096,-0.008484261022997371,2
17.74295715952659,0.05775910079490373,2
17.75295882647108,0.1270261788222819,2
17.76296049341557,0.21614467668663143,2
17.77296216036006,0.28123737284552563,2
17.782963827304552,0.3502079953185826,2
17.792965494249042,0.4102005387313136,2
17.802967161193532,0.5005079725959343,2
17.812968828138025,0.5336034820759978,2
17.822970495082515,0.5704682822387976,2
17.832972162027005,0.6505863103897915,2
17.842973828971495,0.688010274663833,2
17.852975495915988,0.7077521372952534,2
17.862977162860478,0.718896727448316,2
17.872978829804968,0.7705893202389498,2
17.882980496749457,0.7599495157316422,2
17.89298216369395,0.7649703285657349,2
17.90298383063844,0.785955797180574,2
17.91298549758293,0.7778056312185926,2
17.92298716452742,0.7653778067203012,2
17.932988831471913,0.7462189649180887,2
17.942990498416403,0.7308518965034829,2
17.952992165360893,0.691186487303681,2
17.962993832305386,0.6618813879098123,2
17.972995499249876,0.6297005611271755,2
17.982997166194366,0.5997970127860017,2
17.992998833138856,0.5582069949395101,2
18.00300050008335,0.4813197088473573,2
18.01300216702784,0.46511343028944974,2
18.02300383397233,0.4157944479618375,2
18.03300550091682,0.38458773199977814,2
18.04300716786131,0.3355860423693643,2
18.0530088348058,0.3012868868775932,2
18.06301050175029,0.26325576688947716,2
18.073012168694785,0.21409686474292544,2
18.083013835639274,0.17565892484066342,2
18.093015502583764,0.1559562401488942,2
18.103017169528254,0.1361532952952623,2
18.113018836472747,0.08457332540876936,2
18.123020503417237,0.08521999679713374,2
18.133022170361727,0.06551522958726486,2
18.143023837306217,0.060273040937296386,2
18.15302550425071,0.029319432652041212,2
18.1630271711952,0.026672730463224117,2
18.17302883813969,0.0075921825946492615,2
18.183030505084183,0.02177248504554867,2
18.193032172028673,-0.014861773491032699,2
18.203033838973163,0.014565634478442412,2
18.213035505917652,-0.0005477866315696043,2
18.223037172862146,-0.01153846630948432,2
18.233038839806635,0.002794572805067453,2
18.243040506751125,0.026886091145099218,2
18.253042173695615,0.0034715536417170767,2
18.26304384064011,0.004992582306075584,2
18.273045507584598,0.0063704635231383935,2
18.283047174529088,-0.018564782932688005,2
18.29304884147358,-0.0322594430486845,2
18.30305050841807,-0.03710727326752663,2
18.31305217536256,-0.031186741690724322,2
18.32305384230705,-0.06047879333758569,2
18.333055509251544,-0.0764861626929592,2
18.343057176196034,-0.10658053184489938,2
18.353058843140523,-0.12748109590730236,2
18.363060510085013,-0.14879963471546295,2
18.373062177029507,-0.18137056361468612,2
18.383063843973996,-0.2169386061909844,2
18.393065510918486,-0.27742431813068674,2
18.40306717786298,-0.31403447091314407,2
18.41306884480747,-0.35905171887154386,2
18.42307051175196,-0.3882985760821358,2
18.43307217869645,-0.4288680428948189,2
18.443073845640942,-0.4835013867335532,2
18.453075512585432,-0.5358444583385878,2
18.463077179529922,-0.5460910015673495,2
18.47307884647441,-0.6035085851987009,2
18.483080513418905,-0.6450197408928376,2
18.493082180363395,-0.6639104665277024,2
18.503083847307884,-0.6862003847493781,2
18.513085514252378,-0.7303422288503513,2
18.523087181196868,-0.7508091878303026,2
18.533088848141357,-0.7678801920789682,2
18.543090515085847,-0.7916286751312696,2
18.55309218203034,-0.7883622933446829,2
18.56309384897483,-0.775251236011078,2
18.57309551591932,-0.7671707255749259,2
18.58309718286381,-0.7526083532754579,2
18.593098849808303,-0.7397168289953173,2
18.603100516752793,-0.7101407647034473,2
18.613102183697283,-0.6672971380808433,2
18.623103850641776,-0.6302306385674749,2
18.633105517586266,-0.5998244386668328,2
18.643107184530756,-0.521214439419268,2
18.653108851475245,-0.46888608506503066,2
18.66311051841974,-0.40708335629090403,2
18.67311218536423,-0.3438534245711019,2
18.68311385230872,-0.2828560571098004,2
18.693115519253208,-0.20711386103494486,2
18.7031171861977,-0.12884369652692404,2
18.71311885314219,-0.03889196285938648,2
18.72312052008668,0.03787513138418769,2
18.73312218703117,0.09225310036278678,2
18.743123853975664,0.16943527064863362,2
18.753125520920154,0.2528494054910463,2
18.763127187864644,0.31235930238808635,2
18.773128854809137,0.3872427780841161,2
18.783130521753627,0.4693265253613985,2
18.793132188698117,0.5020290124645558,2
18.803133855642606,0.5621552211120942,2
18.8131355225871,0.6069722303802388,2
18.82313718953159,0.6675871912963913,2
18.83313885647608,0.6767133207991559,2
18.84314052342057,0.714744680882877,2
18.853142190365062,0.753109729063977,2
18.863143857309552,0.754358665427408,2
18.873145524254042,0.7818480795708143,2
18.883147191198535,0.7693583946954691,2
18.893148858143025,0.7767459571655124,2
18.903150525087515,0.7849662071941388,2
18.913152192032005,0.753955885723576,2
18.923153858976498,0.7348190006217162,2
18.933155525920988,0.706046614734568,2
18.943157192865478,0.6887140969536268,2
18.953158859809967,0.659511467222671,2
18.96316052675446,0.6145109456291311,2
18.97316219369895,0.5610328400155989,2
18.98316386064344,0.5270948080042189,2
18.993165527587934,0.504784938341061,2
19.003167194532423,0.44461406416744015,2
19.013168861476913,0.4100247299791384,2
19.023170528421403,0.3648065552359011,2
19.033172195365896,0.3165636713172921,2
19.043173862310386,0.2838089342737897,2
19.053175529254876,0.24021062507859453,2
19.063177196199366,0.20464627445460412,2
19.07317886314386,0.1681186779008151,2
19.08318053008835,0.13915652207275522,2
19.09318219703284,0.12265268149493092,2
19.103183863977332,0.09577200937441156,2
19.11318553092182,0.07228590672001045,2
19.12318719786631,0.06058554160115259,2
19.1331888648108,0.05998883804055749,2
19.143190531755295,0.009192902689117766,2
19.153192198699784,0.02293842158015445,2
19.163193865644274,-0.00039728794713107113,2
19.173195532588764,-0.011846991241534332,2
19.183197199533257,0.011141978235327504,2
19.193198866477747,0.00740955279420905,2
19.203200533422237,-0.010152052512539011,2
19.21320220036673,0.006171693191589466,2
19.22320386731122,-0.007320271880118913,2
19.23320553425571,-0.0022439867620128997,2
19.2432072012002,-0.01752176705662356,2
19.253208868144693,-0.01503799167940218,2
19.263210535089183,-0.010172401259695683,2
19.273212202033672,-0.014800204730047496,2
19.283213868978162,-0.010935529568409538,2
19.293215535922656,-0.04847917349562554,2
19.303217202867145,-0.06522939764535444,2
19.313218869811635,-0.08589180097098764,2
19.32322053675613,-0.11499056614411272,2
19.33322220370062,-0.1136931589059869,2
19.343223870645108,-0.1536210925036946,2
19.353225537589598,-0.17432774868220138,2
19.36322720453409,-0.19824830251341152,2
19.37322887147858,-0.23091537954953023,2
19.38323053842307,-0.2883260230587237,2
19.39323220536756,-0.3171303834884956,2
19.403233872312054,-0.3508135718059879,2
19.413235539256544,-0.4054063448199672,2
19.423237206201033,-0.4669139111760629,2
19.433238873145523,-0.5023464915306074,2
19.443240540090017,-0.5334986003544298,2
19.453242207034506,-0.5671016133903386,2
19.463243873978996,-0.6144926494541855,2
19.47324554092349,-0.6448778463328985,2
19.48324720786798,-0.6808912083073272,2
19.49324887481247,-0.7273422782813822,2
19.50325054175696,-0.7272520430236435,2
19.513252208701452,-0.7601219640282746,2
19.523253875645942,-0.7566698689214336,2
19.53325554259043,-0.7750703158793044,2
19.54325720953492,-0.7911441242356375,2
19.553258876479415,-0.7735901259318864,2
19.563260543423905,-0.7586868256434526,2
19.573262210368394,-0.7394719187999188,2
19.583263877312888,-0.7248171728564354,2
19.593265544257378,-0.6998413626609461,2
19.603267211201867,-0.6371030131912617,2
19.613268878146357,-0.5949189194432214,2
19.62327054509085,-0.5634895071397248,2
19.63327221203534,-0.5103752252107655,2
19.64327387897983,-0.4482836557345536,2
19.65327554592432,-0.36701553397436365,2
19.663277212868813,-0.2900741488780824,2
19.673278879813303,-0.22713585155777827,2
19.683280546757793,-0.14838037721067543,2
19.693282213702286,-0.08574470557762408,2
19.703283880646776,-0.009799723729691944,2
19.713285547591266,0.06467044300329822,2
19.723287214535755,0.1369797019618009,2
19.73328888148025,0.21098637134155698,2
19.74329054842474,0.28174259867912854,2
19.75329221536923,0.35921937875561166,2
19.763293882313718,0.4186888866554733,2
19.77329554925821,0.48559547427320926,2
19.7832972162027,0.5269712221801562,2
19.79329888314719,0.5928934450360952,2
19.803300550091684,0.6435151542303658,2
19.813302217036174,0.677003789325964,2
19.823303883980664,0.6811929933247325,2
19.833305550925154,0.740827854476955,2
19.843307217869647,0.7705701631136278,2
19.853308884814137,0.7621914984000133,2
19.863310551758627,0.7685595742223627,2
19.873312218703116,0.7725317019549233,2
19.88331388564761,0.7548435226018947,2
19.8933155525921,0.7513880775123908,2
19.90331721953659,0.7377140470434995,2
19.913318886481083,0.7383615391635057,2
19.923320553425572,0.7057883755547,2
19.933322220370062,0.6776661419234689,2
19.943323887314552,0.6269892095521791,2
19.953325554259045,0.5990769207270417,2
19.963327221203535,0.5652895768395486,2
19.973328888148025,0.5107207963295097,2
19.983330555092515,0.46621369314923,2
19.993332222037008,0.42262728620406426,2
20.003333888981498,0.4049830238078907,2
20.013335555925988,0.34689520000105256,2
20.02333722287048,0.2896955096362484,2
20.03333888981497,0.2762332995102847,2
20.04334055675946,0.21408351777160042,2
20.05334222370395,0.19938941568950647,2
20.063343890648444,0.14871448163816842,2
20.073345557592933,0.1482382653900771,2
20.083347224537423,0.10050611125072619,2
20.093348891481913,0.08878755116589908,2
20.103350558426406,0.07775116855431978,2
20.113352225370896,0.03933258542868502,2
20.123353892315386,0.03952519907054208,2
20.133355559259876,0.018901055060283268,2
20.14335722620437,0.02351498162167876,2
20.15335889314886,0.009852339228093185,2
20.16336056009335,0.018377361031791453,2
20.173362227037842,-0.00985274242670421,2
20.18336389398233,-0.004122484883007928,2
20.19336556092682,0.012442813830043448,2
20.20336722787131,0.011825181760972381,2
20.213368894815805,-0.016771730346137877,2
20.223370561760294,0.0020501293208856648,2
20.233372228704784,-0.004288714617542146,2
20.243373895649274,-0.008029084114282681,2
20.253375562593767,-0.004751162142391347,2
20.263377229538257,-0.005168370778677496,2
20.273378896482747,-0.024572329078711947,2
20.28338056342724,-0.04454461559645329,2
20.29338223037173,-0.0657959504623658,2
20.30338389731622,-0.07762359941784938,2
20.31338556426071,-0.09381601467165597,2
20.323387231205203,-0.12175696875729462,2
20.333388898149693,-0.15290005051131125,2
20.343390565094182,-0.20165468853853835,2
20.353392232038672,-0.22858272754102657,2
20.363393898983166,-0.2583454362611251,2
20.373395565927655,-0.3079446626811417,2
20.383397232872145,-0.3475296954207623,2
20.39339889981664,-0.3879522070395857,2
20.40340056676113,-0.4304654537548147,2
20.413402233705618,-0.46219996179242884,2
20.423403900650108,-0.5128798312859927,2
20.4334055675946,-0.5664261929864733,2
20.44340723453909,-0.5812327389598765,2
20.45340890148358,-0.6337496270447037,2
20.46341056842807,-0.6797094764489517,2
20.473412235372564,-0.6974056446019535,2
20.483413902317054,-0.7256442846848543,2
20.493415569261543,-0.7479104942400973,2
20.503417236206037,-0.7497604639873905,2
20.513418903150527,-0.7662691940045842,2
20.523420570095016,-0.7865633482080653,2
20.533422237039506,-0.7586541359663996,2
20.543423903984,-0.764385897297712,2
20.55342557092849,-0.7614393988286123,2
20.56342723787298,-0.7405255960964875,2
20.57342890481747,-0.7012138690353099,2
20.583430571761962,-0.6529768041814329,2
20.593432238706452,-0.6159685914790454,2
20.60343390565094,-0.5712246006699357,2
20.613435572595435,-0.5425906593122222,2
20.623437239539925,-0.452261756893106,2
20.633438906484415,-0.4319726805027067,2
20.643440573428904,-0.33314669636682237,2
20.653442240373398,-0.2616063283051264,2
20.663443907317887,-0.21409042711963383,2
20.673445574262377,-0.1297553533547749,2
20.683447241206867,-0.06420284130113996,2
20.69344890815136,0.014311945674484149,2
20.70345057509585,0.10730717851408765,2
20.71345224204034,0.1706540420336489,2
20.723453908984833,0.2424185311684091,2
20.733455575929323,0.3181787104231034,2
20.743457242873813,0.38447965223585817,2
20.753458909818303,0.46256481827731855,2
20.763460576762796,0.5181860252516655,2
20.773462243707286,0.579427667837174,2
20.783463910651776,0.631292812484141,2
20.793465577596265,0.6670625276658589,2
20.80346724454076,0.6995076501514522,2
20.81346891148525,0.7216335958336512,2
20.82347057842974,0.7523381710876683,2
20.83347224537423,0.7638868035819906,2
20.84347391231872,0.7870968822165649,2
20.85347557926321,0.7724677654796731,2
20.8634772462077,0.7883541668487557,2
20.873478913152194,0.7641249183443682,2
20.883480580096684,0.7618919601657981,2
20.893482247041174,0.7368793068803501,2
20.903483913985664,0.7096908358626043,2
20.913485580930157,0.6704338938950958,2
20.923487247874647,0.6626431870903478,2
20.933488914819137,0.6251014535054659,2
20.943490581763626,0.5760845402332813,2
20.95349224870812,0.513224770325889,2
20.96349391565261,0.4998400330707841,2
20.9734955825971,0.4334379209403697,2
20.983497249541593,0.39971011995208355,2
20.993498916486082,0.3746116761668952,2
21.003500583430572,0.32563609850793807,2
21.013502250375062,0.295354743033235,2
21.023503917319555,0.25338889016395577,2
21.033505584264045,0.21525912520334473,2
21.043507251208535,0.17828487563858247,2
21.053508918153025,0.15260398318717452,2
21.063510585097518,0.11871763220461948,2
21.073512252042008,0.09120424789201245,2
21.083513918986498,0.05859812653649804,2
21.09351558593099,0.043161940985966346,2
21.10351725287548,0.03529254468357824,2
21.11351891981997,0.01974059480191606,2
21.12352058676446,0.011502404264824798,2
21.133522253708954,0.02824306035873935,2
21.143523920653443,-0.0009292439449890867,2
21.153525587597933,-0.00490713640274297,2
21.163527254542423,0.017568217998210386,2
21.173528921486916,-0.016829167408361035,2
21.183530588431406,0.00899220385434473,2
21.193532255375896,-0.0071020830580892855,2
21.20353392232039,-0.00039395613336145257,2
21.21353558926488,-0.002767015682380634,2
21.22353725620937,-0.012225883219841263,2
21.23353892315386,-0.02156839737915152,2
21.243540590098352,-0.028878462061991128,2
21.25354225704284,-0.023732461758012444,2
21.26354392398733,-0.029270109144055714,2
21.27354559093182,-0.05660572623058604,2
21.283547257876315,-0.06980295688106805,2
21.293548924820804,-0.09448718180901314,2
21.303550591765294,-0.13150025196927007,2
21.313552258709787,-0.14112120215974108,2
21.323553925654277,-0.19625002889513915,2
21.333555592598767,-0.2030800840605252,2
21.343557259543257,-0.24160117697250327,2
21.35355892648775,-0.27607399819324097,2
21.36356059343224,-0.32565021729981525,2
21.37356226037673,-0.36713983453959886,2
21.38356392732122,-0.39733306630177184,2
21.393565594265713,-0.4609005721216635,2
21.403567261210203,-0.48972796918697215,2
21.413568928154692,-0.5353031202269599,2
21.423570595099186,-0.5726449629783013,2
21.433572262043675,-0.6209435428059903,2
21.443573928988165,-0.658745878923109,2
21.453575595932655,-0.6891869875114708,2
21.46357726287715,-0.7011417055980356,2
21.473578929821638,-0.7499894822333424,2
21.483580596766128,-0.7572500553911904,2
21.493582263710618,-0.7605576898156385,2
21.50358393065511,-0.7729929860814317,2
21.5135855975996,-0.7834708124991125,2
21.52358726454409,-0.7642824074298379,2
21.533588931488584,-0.7643572097413426,2
21.543590598433074,-0.7469427778212115,2
21.553592265377564,-0.7426589402774771,2
21.563593932322053,-0.7118824649856552,2
21.573595599266547,-0.6376485794551547,2
21.583597266211036,-0.6253314526365311,2
21.593598933155526,-0.5554863709796312,2
21.603600600100016,-0.49680206955492096,2
21.61360226704451,-0.4579719427667431,2
21.623603933989,-0.3927809976162257,2
21.63360560093349,-0.30469090547005223,2
21.64360726787798,-0.24539645438417498,2
21.653608934822472,-0.16194114254376632,2
21.663610601766962,-0.09990986670883288,2
21.67361226871145,-0.029435005115411507,2
21.683613935655945,0.06484259889911137,2
21.693615602600435,0.14172549284601785,2
21.703617269544925,0.20571985211475635,2
21.713618936489414,0.2639878484652491,2
21.723620603433908,0.36218631053274936,2
21.733622270378397,0.40265458949531135,2
21.743623937322887,0.486725201716676,2
21.753625604267377,0.565609830706923,2
21.76362727121187,0.5877116811444048,2
21.77362893815636,0.6364977870698766,2
21.78363060510085,0.667572948041193,2
21.793632272045343,0.7219546607039974,2
21.803633938989833,0.7470015914042959,2
21.813635605934323,0.7647780421557272,2
21.823637272878813,0.7647382099925696,2
21.833638939823306,0.7823677341108525,2
21.843640606767796,0.801698247335931,2
21.853642273712286,0.7839445490171979,2
21.863643940656775,0.7481565397245861,2
21.87364560760127,0.7509525884760012,2
21.88364727454576,0.7311286811614431,2
21.893648941490248,0.6867205945688081,2
21.90365060843474,0.6671205344400357,2
21.91365227537923,0.6423656736346529,2
21.92365394232372,0.5991242690500815,2
21.93365560926821,0.5729567624524633,2
21.943657276212704,0.5092783929555365,2
21.953658943157194,0.4684739575516358,2
21.963660610101684,0.4174863275543839,2
21.973662277046174,0.38359099462310514,2
21.983663943990667,0.3511096939606053,2
21.993665610935157,0.2992443672320834,2
22.003667277879646,0.26417392844158044,2
22.01366894482414,0.20212226622006815,2
22.02367061176863,0.18791160783098013,2
22.03367227871312,0.1584220747349069,2
22.04367394565761,0.12450994026623086,2
22.053675612602103,0.11816589424013893,2
22.063677279546592,0.08537432460953424,2
22.073678946491082,0.05143880996224068,2
22.083680613435572,0.04434849939424785,2
22.093682280380065,0.043749757517411836,2
22.103683947324555,0.016161362917941582,2
22.113685614269045,0.014309147543113824,2
22.123687281213538,0.005353463502328735,2
22.133688948158028,-0.00937418471367581,2
22.143690615102518,-0.0009107202093509739,2
22.153692282047007,0.011756351727945057,2
22.1636939489915,0.0004844727046560656,2
22.17369561593599,0.014136472318805462,2
22.18369728288048,0.006969612205636591,2
22.19369894982497,-0.00033050303224147945,2
22.203700616769463,0.003544241029608191,2
22.213702283713953,-0.010790043354077728,2
22.223703950658443,-0.005219923356530809,2
22.233705617602936,-0.030371898734759394,2
22.243707284547426,-0.027945588282368074,2
22.253708951491916,-0.05898952117828879,2
22.263710618436406,-0.05059098099170388,2
22.2737122853809,-0.0869566968054006,2
22.28371395232539,-0.11163103364091648,2
22.29371561926988,-0.12524027571453897,2
22.30371728621437,-0.1636001340920065,2
22.313718953158862,-0.1784022185782248,2
22.32372062010335,-0.22975045061388655,2
22.33372228704784,-0.2491503137357281,2
22.34372395399233,-0.31884721057877785,2
22.353725620936824,-0.34379163524054457,2
22.363727287881314,-0.3777244173753946,2
22.373728954825804,-0.42493392601172997,2
22.383730621770297,-0.47111488655840317,2
22.393732288714787,-0.5131998966917767,2
22.403733955659277,-0.5406910164174041,2
22.413735622603767,-0.5974658610879813,2
22.42373728954826,-0.6585246784662208,2
22.43373895649275,-0.6563751104540434,2
22.44374062343724,-0.7031667224346578,2
22.45374229038173,-0.7393802188876009,2
22.463743957326223,-0.7400811375475708,2
22.473745624270713,-0.7697010246533718,2
22.483747291215202,-0.7669571097175073,2
22.493748958159696,-0.7665014255762207,2
22.503750625104185,-0.7820907209358169,2
22.513752292048675,-0.7706194328754461,2
22.523753958993165,-0.7411561289794754,2
22.53375562593766,-0.7304019412275337,2
22.543757292882148,-0.7079611610955155,2
22.553758959826638,-0.6749629840255894,2
22.563760626771128,-0.6396654616731298,2
22.57376229371562,-0.5961176058179858,2
22.58376396066011,-0.5376107462488087,2
22.5937656276046,-0.47382822364423466,2
22.603767294549094,-0.4141475672201219,2
22.613768961493584,-0.3452891012525871,2
22.623770628438074,-0.2800555790932061,2
22.633772295382563,-0.22131686699444245,2
22.643773962327057,-0.12122799691210051,2
22.653775629271546,-0.05479538852273356,2
22.663777296216036,0.010555108141128118,2
22.673778963160526,0.09541412614643588,2
22.68378063010502,0.17073420630053088,2
22.69378229704951,0.2609528908018324,2
22.703783963994,0.3280516856880912,2
22.713785630938492,0.39669569235002433,2
22.723787297882982,0.4375032107079933,2
22.733788964827472,0.48881054350528313,2
22.74379063177196,0.5658003929474951,2
22.753792298716455,0.6143198823470107,2
22.763793965660945,0.6677035036355421,2
22.773795632605434,0.6947548888806615,2
22.783797299549924,0.7324403953841018,2
22.793798966494418,0.7585617186618007,2
22.803800633438907,0.7711592823416209,2
22.813802300383397,0.7586968537150106,2
22.82380396732789,0.7826253386191758,2
22.83380563427238,0.7637385404958854,2
22.84380730121687,0.7763696534920921,2
22.85380896816136,0.756032833336686,2
22.863810635105853,0.7455038675642727,2
22.873812302050343,0.719239567432943,2
22.883813968994833,0.6947703811360412,2
22.893815635939323,0.6590468587845245,2
22.903817302883816,0.6248620956158658,2
22.913818969828306,0.5696649733420476,2
22.923820636772795,0.5281002765035262,2
22.93382230371729,0.495041135244342,2
22.94382397066178,0.4328640795318334,2
22.95382563760627,0.40784173447435745,2
22.963827304550758,0.3555166859339747,2
22.97382897149525,0.31925033229843497,2
22.98383063843974,0.28550140244569094,2
22.99383230538423,0.2380866361946148,2
23.00383397232872,0.20670316719487028,2
23.013835639273214,0.16439108081576587,2
23.023837306217704,0.15379478683255937,2
23.033838973162194,0.10581973388814203,2
23.043840640106687,0.09017244954038549,2
23.053842307051177,0.07763182760424149,2
23.063843973995667,0.06820304031819563,2
23.073845640940156,0.03918213245150964,2
23.08384730788465,0.0361829511247904,2
23.09384897482914,0.00956539053434322,2
23.10385064177363,0.008824226950920219,2
23.11385230871812,0.0029687885528023672,2
23.123853975662612,0.0016455124165233887,2
23.133855642607102,-0.0020150462410532446,2
23.143857309551592,-0.0048071689375232115,2
23.153858976496082,0.010584621252049063,2
23.163860643440575,-0.005029921972763656,2
23.173862310385065,0.0018711230085862508,2
23.183863977329555,0.0038147942614328995,2
23.193865644274048,-0.007221882809927511,2
23.203867311218538,-0.020855979072495562,2
23.213868978163028,-0.033266355904666645,2
23.223870645107517,-0.028686489150098467,2
23.23387231205201,-0.02866778951476679,2
23.2438739789965,-0.059624685435537374,2
23.25387564594099,-0.07734421779158844,2
23.26387731288548,-0.08247565522387537,2
23.273878979829973,-0.12449103751536184,2
23.283880646774463,-0.14037405299448133,2
23.293882313718953,-0.19018465615838068,2
23.303883980663446,-0.19996448563889238,2
23.313885647607936,-0.2533044038498069,2
23.323887314552426,-0.27476086693364216,2
23.333888981496916,-0.33196788027258034,2
23.34389064844141,-0.37134871507482364,2
23.3538923153859,-0.4238099980170853,2
23.36389398233039,-0.4608666449923129,2
23.37389564927488,-0.5006859826652564,2
23.38389731621937,-0.5229830210784542,2
23.39389898316386,-0.5751951591883417,2
23.40390065010835,-0.6234434628994818,2
23.413902317052845,-0.6360879900602373,2
23.423903983997334,-0.700726068962769,2
23.433905650941824,-0.7183659623433274,2
23.443907317886314,-0.7583241632707239,2
23.453908984830807,-0.7532789618956061,2
23.463910651775297,-0.7738430962953691,2
23.473912318719787,-0.7651453951671852,2
23.483913985664277,-0.7910532510319812,2
23.49391565260877,-0.782374557630393,2
23.50391731955326,-0.7573597971656685,2
23.51391898649775,-0.7456281522154665,2
23.523920653442243,-0.7184786824805349,2
23.533922320386733,-0.6869525225956176,2
23.543923987331222,-0.6535815184004756,2
23.553925654275712,-0.6053276777764852,2
23.563927321220206,-0.5485672937978207,2
23.573928988164695,-0.5119215296591165,2
23.583930655109185,-0.4563910858283806,2
23.593932322053675,-0.38825470670268947,2
23.60393398899817,-0.3091018722737986,2
23.613935655942658,-0.2608037187980998,2
23.623937322887148,-0.16293990582818646,2
23.63393898983164,-0.08697752001180299,2
23.64394065677613,-0.005916380262129721,2
23.65394232372062,0.07536264264739671,2
23.66394399066511,0.13793957938165774,2
23.673945657609604,0.22463356709186638,2
23.683947324554094,0.27136645082277683,2
23.693948991498583,0.33947322869001734,2
23.703950658443073,0.4049354523824319,2
23.713952325387567,0.47373337956218886,2
23.723953992332056,0.513085176382769,2
23.733955659276546,0.580874969766792,2
23.74395732622104,0.6280063309821456,2
23.75395899316553,0.6798653500711537,2
23.76396066011002,0.7034676093392849,2
23.77396232705451,0.7437208986167028,2
23.783963993999002,0.7607081920107118,2
23.793965660943492,0.7854777894420878,2
23.80396732788798,0.7839187073020724,2
23.81396899483247,0.7706843368199424,2
23.823970661776965,0.7759373584105258,2
23.833972328721455,0.7709274942243666,2
23.843973995665944,0.7277868401385699,2
23.853975662610434,0.7243565534508304,2
23.863977329554928,0.7005353024820686,2
23.873978996499417,0.6606263995798705,2
23.883980663443907,0.6134275512387423,2
23.8939823303884,0.602646108662714,2
23.90398399733289,0.5605066840361124,2
23.91398566427738,0.5189683566675702,2
23.92398733122187,0.4873392018433854,2
23.933988998166363,0.42972771022613215,2
23.943990665110853,0.37653906692804284,2
23.953992332055343,0.33955734331217535,2
23.963993998999833,0.30961238386000817,2
23.973995665944326,0.2551040384780668,2
23.983997332888816,0.23824603240329095,2
23.993998999833305,0.1910662803650933,2
24.0040006667778,0.15566230322330446,2
24.01400233372229,0.1320078994962076,2
24.02400400066678,0.10696824884780393,2
24.034005667611268,0.06306818222326382,2
24.04400733455576,0.043025394571218296,2
24.05400900150025,0.03652935121592384,2
24.06401066844474,0.03780863521225797,2
24.07401233538923,0.015588371804091523,2
24.084014002333724,0.016232133039536897,2
24.094015669278214,-0.0054234433137034035,2
24.104017336222704,-0.007904005110408027,2
24.114019003167197,-0.015974223821806705,2
24.124020670111687,-0.011101242156522667,2
24.134022337056177,-0.002882701269609027,2
24.144024004000666,-0.0018696545829342513,2
24.15402567094516,0.02358958463158811,2
24.16402733788965,0.015182210925693735,2
24.17402900483414,-0.0061170897368856315,2
24.18403067177863,-0.004308951058986124,2
24.194032338723122,-0.025106166257288405,2
24.204034005667612,-0.023420138615886016,2
24.214035672612102,-0.0352743199147949,2
24.224037339556595,-0.028003126067281458,2
24.234039006501085,-0.056590754179681124,2
24.244040673445575,-0.07941774033963861,2
24.254042340390065,-0.09412748985689712,2
24.264044007334558,-0.11325612688661704,2
24.274045674279048,-0.1561941010313441,2
24.284047341223538,-0.1784209075745724,2
24.294049008168027,-0.2294521961162381,2
24.30405067511252,-0.2677329225858863,2
24.31405234205701,-0.2926176010891634,2
24.3240540090015,-0.3501535296108194,2
24.334055675945994,-0.36861019080296964,2
24.344057342890483,-0.4255120717757999,2
24.354059009834973,-0.47035433251658343,2
24.364060676779463,-0.5160550838965625,2
24.374062343723956,-0.5528095491353677,2
24.384064010668446,-0.6089401723607079,2
24.394065677612936,-0.6228322113693325,2
24.404067344557426,-0.6837152975155025,2
24.41406901150192,-0.703082509372624,2
24.42407067844641,-0.7223673203493288,2
24.4340723453909,-0.7531303367875096,2
24.444074012335392,-0.7386583150058406,2
24.45407567927988,-0.759197995561045,2
24.46407734622437,-0.7777872486064854,2
24.47407901316886,-0.7915345093636793,2
24.484080680113355,-0.7801687772737917,2
24.494082347057844,-0.7667139120431866,2
24.504084014002334,-0.735002757028035,2
24.514085680946824,-0.7062806155830399,2
24.524087347891317,-0.6802469483249699,2
24.534089014835807,-0.6291645907932336,2
24.544090681780297,-0.5743475341440616,2
24.554092348724787,-0.5516476127408748,2
24.56409401566928,-0.4790696756261135,2
24.57409568261377,-0.4172576952246136,2
24.58409734955826,-0.345574878371341,2
24.594099016502753,-0.26592113302745035,2
24.604100683447243,-0.19404704693634703,2
24.614102350391732,-0.1339620123680289,2
24.624104017336222,-0.05450654482475453,2
24.634105684280716,0.009283811042448869,2
24.644107351225205,0.10665927857600001,2
24.654109018169695,0.16455982822194617,2
24.664110685114185,0.24554338184587854,2
24.67411235205868,0.2970441965500864,2
24.684114019003168,0.3760367057323358,2
24.694115685947658,0.44377729522983106,2
24.70411735289215,0.524617281122704,2
24.71411901983664,0.5633561805900384,2
24.72412068678113,0.6093544139367647,2
24.73412235372562,0.6397969671355804,2
24.744124020670114,0.6969543159280418,2
24.754125687614604,0.7296415607391478,2
24.764127354559093,0.7576660796394067,2
24.774129021503583,0.7506424889693027,2
24.784130688448077,0.7781372091065328,2
24.794132355392566,0.7766414021163031,2
24.804134022337056,0.7900166215387617,2
24.81413568928155,0.7697448491198059,2
24.82413735622604,0.7500573127761104,2
24.83413902317053,0.7273196007870987,2
24.84414069011502,0.7107522076479564,2
24.854142357059512,0.7039183144008081,2
24.864144024004002,0.6465788213983767,2
24.87414569094849,0.6187509291840309,2
24.88414735789298,0.5639055818671503,2
24.894149024837475,0.5342052911000698,2
24.904150691781965,0.5052127349575969,2
24.914152358726454,0.4539931237971828,2
24.924154025670948,0.4102147490952214,2
24.934155692615438,0.35666038106963593,2
24.944157359559927,0.3255354706768523,2
24.954159026504417,0.2791927888112783,2
24.96416069344891,0.23776754417614882,2
24.9741623603934,0.19489668549390876,2
24.98416402733789,0.17787221850961302,2
24.99416569428238,0.14613601483565888,2
25.004167361226873,0.13770339233969547,2
25.014169028171363,0.08821640465515296,2
25.024170695115853,0.07236366046392481,2
25.034172362060346,0.05279860343616371,2
25.044174029004836,0.03957480276064017,2
25.054175695949326,0.014207124482045792,2
25.064177362893815,0.007353095010713795,2
25.07417902983831,0.017226331102879605,2
25.0841806967828,0.005585087868476151,2
25.09418236372729,0.007721930860877416,2
25.104184030671778,0.01396204480965526,2
25.11418569761627,-0.0044339544314350565,2
25.12418736456076,-0.001205352819712449,2
25.13418903150525,-0.004522476659002811,2
25.144190698449744,-0.00290158303977293,2
25.154192365394234,0.013729456926074461,2
25.164194032338724,-0.014755244743569077,2
25.174195699283214,-0.01162807786206733,2
25.184197366227707,-0.029943905045396534,2
25.194199033172197,-0.012603289273667793,2
25.204200700116687,-0.04320984602341005,2
25.214202367061176,-0.05432617978341306,2
25.22420403400567,-0.06454058942840772,2
25.23420570095016,-0.08541226627782678,2
25.24420736789465,-0.11421474943728614,2
25.25420903483914,-0.13982307142880213,2
25.264210701783632,-0.1787426638924211,2
25.274212368728122,-0.20712052205058357,2
25.284214035672612,-0.2521894620110133,2
25.294215702617105,-0.2717906573101449,2
25.304217369561595,-0.3191763511027171,2
25.314219036506085,-0.3574707552390472,2
25.324220703450575,-0.40914503776124866,2
25.334222370395068,-0.45919427540880703,2
25.344224037339558,-0.47570638335012166,2
25.354225704284048,-0.5121188687888031,2
25.364227371228537,-0.604991930133379,2
25.37422903817303,-0.6179237406784427,2
25.38423070511752,-0.644174888467338,2
25.39423237206201,-0.662565262240037,2
25.404234039006504,-0.6979545062158741,2
25.414235705950993,-0.7247482943153063,2
25.424237372895483,-0.757307471116387,2
25.434239039839973,-0.7810576254778843,2
25.444240706784466,-0.7835572060040553,2
25.454242373728956,-0.782302743657546,2
25.464244040673446,-0.7782824048224437,2
25.474245707617936,-0.7657390133503411,2
25.48424737456243,-0.7353180978790896,2
25.49424904150692,-0.7185660988511241,2
25.50425070845141,-0.7045682203393174,2
25.514252375395902,-0.6529347218851731,2
25.52425404234039,-0.6065596638996372,2
25.53425570928488,-0.5527684654031287,2
25.54425737622937,-0.5232341167767005,2
25.554259043173865,-0.4545721421010481,2
25.564260710118354,-0.3971760931375491,2
25.574262377062844,-0.29880264451934635,2
25.584264044007334,-0.2637585330307884,2
25.594265710951827,-0.1596722669941329,2
25.604267377896317,-0.10101961289911825,2
25.614269044840807,-0.014999041964526784,2
25.6242707117853,0.08841976180880777,2
25.63427237872979,0.13680686162681555,2
25.64427404567428,0.22492154825221902,2
25.65427571261877,0.284847685272959,2
25.664277379563263,0.3479001676617288,2
25.674279046507753,0.4443383742725635,2
25.684280713452242,0.48713579463465434,2
25.694282380396732,0.5562173203449856,2
25.704284047341226,0.5881581519511588,2
25.714285714285715,0.6351817838672713,2
25.724287381230205,0.6776882679289686,2
25.7342890481747,0.7165193964122357,2
25.744290715119188,0.7437443149623958,2
25.754292382063678,0.7573685626453338,2
25.764294049008168,0.7846842372499939,2
25.77429571595266,0.77650917349885,2
25.78429738289715,0.7859197942882622,2
25.79429904984164,0.78697728000672,2
25.80430071678613,0.7651269294257615,2
25.814302383730624,0.7432023658355165,2
25.824304050675114,0.717803012105747,2
25.834305717619603,0.6863510162132105,2
25.844307384564097,0.6629164912468245,2
25.854309051508586,0.6120619288748703,2
25.864310718453076,0.6009095262079359,2
25.874312385397566,0.5453374785052207,2
25.88431405234206,0.5261069582132636,2
25.89431571928655,0.4809556838354162,2
25.90431738623104,0.41334447081557546,2
25.91431905317553,0.39829577572874586,2
25.924320720120022,0.34241920651583774,2
25.934322387064512,0.3045342010423062,2
25.944324054009,0.2683647461387657,2
25.954325720953495,0.22554349941801327,2
25.964327387897985,0.1970248770754183,2
25.974329054842475,0.14199448497326192,2
25.984330721786964,0.12097062497394359,2
25.994332388731458,0.08528909347589282,2
26.004334055675947,0.07819955939881164,2
26.014335722620437,0.05391656187229373,2
26.024337389564927,0.030525621258078922,2
26.03433905650942,0.04131875860562372,2
26.04434072345391,-0.0033592452073444995,2
26.0543423903984,0.014038493757905487,2
26.06434405734289,-0.009476125572103651,2
26.074345724287383,0.01694562802462259,2
26.084347391231873,-0.00026244287109355156,2
26.094349058176363,-0.0042700685613075795,2
26.104350725120856,0.004680816726594819,2
26.114352392065346,0.023405026490069473,2
26.124354059009836,-0.009963153557686021,2
26.134355725954325,-0.0028068429445377223,2
26.14435739289882,-0.013407704295526339,2
26.15435905984331,-0.02326890893555459,2
26.1643607267878,-0.017020852892858367,2
26.174362393732288,-0.01750193207688856,2
26.18436406067678,-0.030315954573385148,2
26.19436572762127,-0.048512365708725295,2
26.20436739456576,-0.059612919532204205,2
26.214369061510254,-0.11081295648501481,2
26.224370728454744,-0.11783656784673016,2
26.234372395399234,-0.1489773095893202,2
26.244374062343724,-0.15911273653664476,2
26.254375729288217,-0.1876350279051675,2
26.264377396232707,-0.23255444643660492,2
26.274379063177197,-0.258017740512167,2
26.284380730121686,-0.3023174247395522,2
26.29438239706618,-0.35288506537631636,2
26.30438406401067,-0.37797898555701576,2
26.31438573095516,-0.41522501671105894,2
26.324387397899653,-0.4881084437746104,2
26.334389064844142,-0.525424465598879,2
26.344390731788632,-0.5563337069595113,2
26.354392398733122,-0.5863490909943808,2
26.364394065677615,-0.6182100241364414,2
26.374395732622105,-0.6665919069839591,2
26.384397399566595,-0.6904745280589213,2
26.394399066511085,-0.7194560843285879,2
26.404400733455578,-0.7307918352168477,2
26.414402400400068,-0.7690724125572833,2
26.424404067344557,-0.7792305000105643,2
26.43440573428905,-0.7810318935667347,2
26.44440740123354,-0.7706643671398274,2
26.45440906817803,-0.7635988632813576,2
26.46441073512252,-0.7589358637042856,2
26.474412402067014,-0.7249602610917915,2
26.484414069011503,-0.7059840095131749,2
26.494415735955993,-0.6733272286676157,2
26.504417402900483,-0.6384483993443875,2
26.514419069844976,-0.6021676801752045,2
26.524420736789466,-0.5492989181625366,2
26.534422403733956,-0.4768875903767872,2
26.54442407067845,-0.4200465780463103,2
26.55442573762294,-0.3549797924624658,2
26.56442740456743,-0.2795720006158374,2
26.57442907151192,-0.2168326096629735,2
26.584430738456412,-0.12647798235835947,2
26.5944324054009,-0.05965748907892107,2
26.60443407234539,0.01198036134301055,2
26.61443573928988,0.09670814896648836,2
26.624437406234374,0.18101572517255032,2
26.634439073178864,0.25849018073093855,2
26.644440740123354,0.32709382119125996,2
26.654442407067847,0.38051155557515337,2
26.664444074012337,0.4555713493907178,2
26.674445740956827,0.5163874765884034,2
26.684447407901317,0.5565286829315125,2
26.69444907484581,0.6104214001025473,2
26.7044507417903,0.6561182805095452,2
26.71445240873479,0.7040457235090348,2
26.72445407567928,0.7179646549808337,2
26.734455742623773,0.760780362149669,2
26.744457409568263,0.7533242145982508,2
26.754459076512752,0.7750262114320031,2
26.764460743457242,0.7773216563635494,2
26.774462410401735,0.7738319674316255,2
26.784464077346225,0.7676286851807279,2
26.794465744290715,0.7515682183534657,2
26.80446741123521,0.7202394767321341,2
26.814469078179698,0.7119008868239469,2
26.824470745124188,0.6793109082069476,2
26.834472412068678,0.66120203932855,2
26.84447407901317,0.6257800294516953,2
26.85447574595766,0.5649183911020236,2
26.86447741290215,0.5382498983700912,2
26.87447907984664,0.5129319397051315,2
26.884480746791134,0.44775752227637194,2
26.894482413735624,0.3975835287171262,2
26.904484080680113,0.37263479828952656,2
26.914485747624607,0.311291930216092,2
26.924487414569096,0.2865931673208187,2
26.934489081513586,0.2419625278175287,2
26.944490748458076,0.2137766176093477,2
26.95449241540257,0.16029871650887295,2
26.96449408234706,0.13824173555737115,2
26.97449574929155,0.11134788867429155,2
26.98449741623604,0.09082200559958342,2
26.994499083180532,0.07278240861988058,2
27.004500750125022,0.04731149442396883,2
27.01450241706951,0.038583780612681196,2
27.024504084014005,0.029977436796878566,2
27.034505750958495,0.006569236123436316,2
27.044507417902985,-0.01468710489212402,2
27.054509084847474,-0.0018398228304762898,2
27.064510751791968,6.331919503297506e-05,2
27.074512418736457,0.0021374360400718993,2
27.084514085680947,0.02136602869703578,2
27.094515752625437,-0.009071592442770844,2
27.10451741956993,-0.005897773604887461,2
27.11451908651442,0.0009480290226217651,2
27.12452075345891,-0.013100644217528955,2
27.134522420403403,0.002146834364087278,2
27.144524087347893,-0.01509973650543059,2
27.154525754292383,-0.014331964487803224,2
27.164527421236873,-0.03409346339097373,2
27.174529088181366,-0.04260641058572297,2
27.184530755125856,-0.04633425069248942,2
27.194532422070345,-0.0787159104375623,2
27.204534089014835,-0.09835808591584007,2
27.21453575595933,-0.10982083902027386,2
27.22453742290382,-0.1458025671239553,2
27.234539089848308,-0.1565933259333233,2
27.2445407567928,-0.21676544520080968,2
27.25454242373729,-0.2489553681768988,2
27.26454409068178,-0.2795166866047027,2
27.27454575762627,-0.3143456653131013,2
27.284547424570764,-0.3658192930101118,2
27.294549091515254,-0.39643539492127977,2
27.304550758459744,-0.4490593000098261,2
27.314552425404234,-0.4979678753961669,2
27.324554092348727,-0.5458207426306949,2
27.334555759293217,-0.5680173334866604,2
27.344557426237706,-0.6041725250245169,2
27.3545590931822,-0.6553087696731481,2
27.36456076012669,-0.6817338868701885,2
27.37456242707118,-0.7076658487072831,2
27.38456409401567,-0.7269297535555193,2
27.394565760960162,-0.7686739570295952,2
27.404567427904652,-0.7600664671491429,2
27.414569094849142,-0.778977904978518,2
27.424570761793632,-0.7731178799774807,2
27.434572428738125,-0.773586484800625,2
27.444574095682615,-0.7410922809602883,2
27.454575762627105,-0.7441146554197964,2
27.464577429571595,-0.7076736733084645,2
27.474579096516088,-0.6941045067826569,2
27.484580763460578,-0.6604113736786572,2
27.494582430405067,-0.625074708741291,2
27.50458409734956,-0.5628792513763852,2
27.51458576429405,-0.5063330895363601,2
27.52458743123854,-0.44264265699040045,2
27.53458909818303,-0.3713883172108111,2
27.544590765127523,-0.31384645615025686,2
27.554592432072013,-0.24710825005362602,2
27.564594099016503,-0.17954631099188412,2
27.574595765960993,-0.09349703619744912,2
27.584597432905486,-0.01058384229896572,2
27.594599099849976,0.06434925712086932,2
27.604600766794466,0.12404178557439823,2
27.61460243373896,0.22275525102389587,2
27.62460410068345,0.2819193087736988,2
27.63460576762794,0.36186554719148795,2
27.64460743457243,0.43145172707517754,2
27.65460910151692,0.4791446139630575,2
27.66461076846141,0.5275570306634774,2
27.6746124354059,0.5883766401412145,2
27.68461410235039,0.623393344318999,2
27.694615769294884,0.6736474776358615,2
27.704617436239374,0.722441726046567,2
27.714619103183864,0.7343856207010692,2
27.724620770128357,0.7437968199630803,2
27.734622437072847,0.7740349561713906,2
27.744624104017337,0.7748824255149165,2
27.754625770961827,0.7705837483933654,2
27.76462743790632,0.7860350338960239,2
27.77462910485081,0.7647170296227541,2
27.7846307717953,0.7336412331261192,2
27.79463243873979,0.7243861747016008,2
27.804634105684283,0.6966538926107134,2
27.814635772628773,0.6772715884658321,2
27.824637439573262,0.6234722598124299,2
27.834639106517756,0.6156898416952808,2
27.844640773462245,0.535012657657653,2
27.854642440406735,0.4935668458692741,2
27.864644107351225,0.46791466383085656,2
27.87464577429572,0.4402208706904602,2
27.884647441240208,0.3653888324674787,2
27.894649108184698,0.36410480970292025,2
27.904650775129188,0.30597179060904833,2
27.91465244207368,0.2522991682997778,2
27.92465410901817,0.2444362918450889,2
27.93465577596266,0.18822652405471701,2
27.944657442907154,0.17742452647737522,2
27.954659109851644,0.12459583401462303,2
27.964660776796133,0.1138078689291263,2
27.974662443740623,0.05680267093925175,2
27.984664110685117,0.06950217543567011,2
27.994665777629606,0.06254834131055198,2
28.004667444574096,0.036324002481181436,2
28.014669111518586,0.026114695850763685,2
28.02467077846308,0.010115365063519234,2
28.03467244540757,0.013078279746554422,2
28.04467411235206,0.001930133566638452,2
28.054675779296552,-0.01694352438739346,2
28.064677446241042,0.0001408471196086981,2
28.07467911318553,-0.0049001684428035775,2
28.08468078013002,-0.005226219566888093,2
28.094682447074515,-0.016694304700759877,2
28.104684114019005,-0.008236851049961117,2
28.114685780963494,0.015817071104083046,2
28.124687447907984,-0.0035649352747913836,2
28.134689114852478,-9.376026266699755e-05,2
28.144690781796967,-0.025325408940263264,2
28.154692448741457,-0.03843950004592928,2
28.164694115685947,-0.049011950397066156,2
28.17469578263044,-0.08214472492946502,2
28.18469744957493,-0.08764195218630003,2
28.19469911651942,-0.0848646214164653,2
28.204700783463913,-0.12424017312470445,2
28.214702450408403,-0.16277367079175153,2
28.224704117352893,-0.17483275491773864,2
28.234705784297383,-0.24255383634192407,2
28.244707451241876,-0.27156883958104355,2
28.254709118186366,-0.30948957867051846,2
28.264710785130855,-0.3376468877250986,2
28.274712452075345,-0.4007089159188482,2
28.28471411901984,-0.45489014241937853,2
28.29471578596433,-0.47951016053279805,2
28.304717452908818,-0.5091234849885073,2
28.31471911985331,-0.5587513305442272,2
28.3247207867978,-0.5788991480311068,2
28.33472245374229,-0.631166425103008,2
28.34472412068678,-0.6673042950863829,2
28.354725787631274,-0.6883613773260324,2
28.364727454575764,-0.7189990161622662,2
28.374729121520254,-0.7508145963488208,2
28.384730788464744,-0.7413166278474329,2
28.394732455409237,-0.7685292874279094,2
28.404734122353727,-0.7698787411838254,2
28.414735789298216,-0.7835928597463188,2
28.42473745624271,-0.7673968134223386,2
28.4347391231872,-0.7562995755678189,2
28.44474079013169,-0.7508917338428933,2
28.45474245707618,-0.7073919710315231,2
28.464744124020672,-0.6688140022644569,2
28.474745790965162,-0.6445246923029918,2
28.484747457909652,-0.6092669640500112,2
28.494749124854142,-0.5285511436448443,2
28.504750791798635,-0.4782030996887148,2
28.514752458743125,-0.4287695494001891,2
28.524754125687615,-0.3568713309724129,2
28.534755792632108,-0.2736911615146798,2
28.544757459576598,-0.19012875319425548,2
28.554759126521088,-0.13673528132762414,2
28.564760793465577,-0.054123035705494975,2
28.57476246041007,0.015346146506682333,2
28.58476412735456,0.09781167939427013,2
28.59476579429905,0.17281192176961863,2
28.60476746124354,0.24583907102552055,2
28.614769128188033,0.32031743535419294,2
28.624770795132523,0.38562985185542376,2
28.634772462077013,0.45388564553027044,2
28.644774129021506,0.5069050726648263,2
28.654775795965996,0.5624209892866847,2
28.664777462910486,0.621698886620472,2
28.674779129854976,0.6683552604251587,2
28.68478079679947,0.6936850728087908,2
28.69478246374396,0.7043486042796059,2
28.70478413068845,0.7457514332880868,2
28.71478579763294,0.7478260251424806,2
28.72478746457743,0.7826336729679902,2
28.73478913152192,0.7918397745183223,2
28.74479079846641,0.7852268836605015,2
28.754792465410905,0.7615847336788161,2
28.764794132355394,0.7669963617678246,2
28.774795799299884,0.712745562632635,2
28.784797466244374,0.7010609414262975,2
28.794799133188867,0.6785717787149158,2
28.804800800133357,0.638493882510463,2
28.814802467077847,0.6318047147874063,2
28.824804134022337,0.5663367723952866,2
28.83480580096683,0.5362517247698723,2
28.84480746791132,0.49882057840880084,2
